time (s)	magX	magY	magZ
2005.150975	174.517822	183.576859	-892.928101
2005.154384	170.952652	201.870255	-881.005310
2005.157608	168.088837	219.812958	-867.036804
2005.160945	164.231445	236.645248	-851.899414
2005.164282	161.893631	252.659271	-836.762146
2005.167628	159.789597	268.673309	-821.741699
2005.170948	157.627121	282.933960	-805.435364
2005.173852	155.523087	296.843964	-788.661621
2005.177186	154.061951	309.877289	-771.946228
2005.180519	152.951492	321.975433	-754.003540
2005.183851	152.250153	333.372314	-737.171265
2005.187204	151.607254	344.009338	-718.994751
2005.190516	151.256577	353.652832	-701.870239
2005.193849	151.022797	362.945648	-684.219727
2005.197183	151.139694	370.251312	-666.452332
2005.200517	150.847458	377.966095	-649.678589
2005.203914	150.964340	384.628876	-632.437195
2005.207181	151.256577	390.531860	-614.903564
2005.210515	150.438339	396.142609	-597.954407
2005.213842	149.737000	400.584473	-580.888367
2005.217180	148.743423	403.857361	-563.880798
2005.220513	146.873169	407.013458	-547.106934
2005.223846	145.762711	410.227905	-531.092957
2005.227186	143.834015	412.624207	-514.669800
2005.230547	141.905319	414.669800	-498.655762
2005.233843	138.807709	416.072449	-482.875488
2005.237177	135.768555	417.592041	-467.387482
2005.240506	132.612503	418.527161	-452.659271
2005.243843	129.164230	419.579163	-438.515472
2005.247173	125.540611	420.572754	-424.079468
2005.250514	121.449448	420.981873	-409.994171
2005.253841	117.416718	420.981873	-396.727051
2005.257175	112.974869	421.858551	-382.992401
2005.260521	108.182350	420.865021	-370.368195
2005.263838	103.389832	419.170105	-355.990662
2005.267170	98.831093	418.001160	-343.424896
2005.270507	93.804794	416.364716	-330.859131
2005.273847	89.304504	415.078888	-317.825836
2005.277172	84.044418	413.091766	-305.552307
2005.280505	79.894798	410.344849	-293.278778
2005.283840	74.751610	407.305664	-282.583282
2005.287177	70.894211	404.383423	-271.186462
2005.290549	66.919930	402.220917	-259.848053
2005.293838	63.530098	397.720612	-248.451202
2005.297176	59.731148	393.863251	-239.158386
2005.300503	56.984222	390.590271	-228.579788
2005.303858	54.120399	386.148437	-218.234940
2005.307170	51.548801	381.940399	-208.825256
2005.310504	49.503212	377.206299	-200.993561
2005.315198	45.879601	367.796600	-182.583282
2005.318189	44.652252	363.413208	-173.290482
2005.321435	42.957336	358.562256	-166.335480
2005.324768	41.788429	354.354156	-158.503799
2005.328038	41.496201	349.912323	-150.496780
2005.331349	40.385738	344.593811	-143.775574
2005.334677	39.684395	340.035065	-136.411453
2005.338042	39.742840	335.710114	-130.333130
2005.341375	38.807713	331.034485	-124.780830
2005.344281	38.690823	326.358856	-118.001160
2005.347632	38.281708	321.507874	-112.916420
2005.350949	37.288136	317.299805	-107.364120
2005.354272	37.171246	312.916412	-101.987144
2005.357592	35.710110	308.357697	-96.902397
2005.360924	35.476330	303.857391	-92.694328
2005.364255	35.125656	299.941559	-87.200470
2005.367588	33.781414	295.441284	-82.875511
2005.370929	32.787846	291.233215	-78.784332
2005.373836	31.618935	287.258911	-74.868500
2005.377195	30.157801	282.700195	-69.783752
2005.380498	29.456457	278.725891	-66.101692
2005.383833	27.761543	275.978973	-62.010521
2005.387160	25.832848	271.946228	-58.270020
2005.390512	24.137930	268.965515	-55.055523
2005.393833	22.326126	265.400360	-51.315022
2005.397158	20.923437	261.601410	-47.457626
2005.400519	19.228521	258.153137	-43.308006
2005.403837	17.358271	254.938629	-39.976620
2005.407157	14.845119	251.139694	-37.288136
2005.410501	13.208650	247.808289	-33.956753
2005.413830	11.747516	244.769150	-31.034481
2005.417167	9.818819	241.437744	-27.352425
2005.420492	8.299240	238.573929	-24.722383
2005.423823	6.954997	235.943893	-22.326126
2005.427155	6.253653	232.028061	-18.527178
2005.430498	4.324956	228.930450	-16.247808
2005.433844	2.980713	226.183502	-13.442431
2005.437160	1.987142	223.319702	-10.520164
2005.440487	-0.292227	220.514328	-8.474577
2005.443822	0.292227	216.832260	-6.487434
2005.447159	-1.519579	214.260681	-3.915838
2005.450489	-2.045588	211.396835	-1.928697
2005.453829	-2.104033	208.766800	0.467563
2005.457155	-2.805377	205.902985	2.571596
2005.460486	-3.448276	203.214508	4.091175
2005.463853	-3.565166	201.285797	5.786090
2005.467154	-3.565166	199.590881	7.831677
2005.470488	-3.857393	196.843948	9.701928
2005.473817	-3.915838	195.324371	10.403274
2005.477178	-3.915838	192.694336	12.098188
2005.480485	-4.032730	190.298065	13.383986
2005.483824	-3.623612	188.836929	14.026885
2005.487157	-3.214494	186.966675	14.903564
2005.490500	-2.805377	184.979553	15.721800
2005.493819	-2.746932	183.810638	17.007599
2005.497157	-3.156049	181.998840	18.001169
2005.500493	-2.922268	180.479248	19.111629
2005.503816	-2.337814	179.193451	19.403856
2005.507153	-3.214494	177.030975	19.812975
2005.511827	-3.682057	174.342484	22.033899
2005.514752	-4.032730	173.173584	22.501461
2005.518071	-3.915838	171.770889	24.079485
2005.521369	-4.266511	170.075974	24.254822
2005.524662	-4.909410	169.608414	24.839275
2005.527996	-5.727644	168.088837	25.657511
2005.531370	-6.487434	167.036819	25.949738
2005.534701	-6.312099	165.751022	27.235535
2005.538097	-7.364114	164.406769	27.703098
2005.541450	-8.240795	163.997665	28.755114
2005.544326	-8.942139	162.127411	29.631794
2005.547568	-9.643483	161.309174	29.982466
2005.550945	-10.987726	160.374039	30.274693
2005.554243	-11.046172	159.322037	31.385153
2005.557576	-11.981297	158.386917	31.618935
2005.560896	-12.799533	157.101105	33.196960
2005.564246	-13.383986	155.815308	34.482758
2005.567566	-14.319112	154.587967	34.774986
2005.570478	-14.903564	154.003494	34.950321
2005.573815	-14.319112	153.302155	35.593220
2005.577144	-15.312682	152.367035	36.002338
2005.580480	-15.721800	151.198120	37.171246
2005.583814	-16.014027	150.905914	37.638809
2005.587206	-16.423145	149.678558	37.521915
2005.590478	-16.540035	148.392746	37.931034
2005.593824	-16.773817	148.801880	38.690823
2005.597139	-16.481590	147.925186	38.807713
2005.600477	-16.656927	147.282288	39.567505
2005.603807	-16.481590	146.873169	39.099941
2005.607146	-16.189363	146.522491	39.801285
2005.610478	-15.721800	146.113388	39.625950
2005.613808	-16.014027	145.821152	40.093510
2005.617141	-15.254237	145.470490	40.035065
2005.620469	-15.137346	145.236710	39.392166
2005.623805	-14.962010	145.645828	39.801285
2005.627138	-14.026885	145.061356	39.859730
2005.630491	-14.143775	145.587372	39.918175
2005.633808	-14.202221	145.353592	39.333721
2005.637135	-13.617767	146.288712	38.749268
2005.640472	-13.617767	145.645828	38.749268
2005.643805	-13.208650	146.171829	39.275276
2005.647136	-13.091760	146.288712	39.041496
2005.650470	-13.033314	146.464066	37.989479
2005.653805	-12.916424	146.639389	39.041496
2005.657134	-13.267096	147.106964	38.340153
2005.660472	-13.033314	147.925186	38.106369
2005.663803	-13.851549	147.808304	37.638809
2005.667137	-13.909994	147.925186	37.814144
2005.670466	-14.728229	148.626526	37.814144
2005.673802	-14.903564	148.801880	37.171246
2005.677137	-15.838690	148.626526	36.937462
2005.680480	-16.130919	149.210983	37.171246
2005.683794	-16.306253	150.087662	36.060783
2005.687135	-17.416716	149.853882	36.002338
2005.690466	-17.708942	150.730560	36.119228
2005.693803	-18.118059	151.139694	36.236118
2005.697134	-18.877850	151.081238	36.703682
2005.700467	-19.345411	151.373474	36.060783
2005.703798	-19.520748	151.957916	36.353008
2005.707134	-20.338982	152.308594	36.762127
2005.710463	-20.631210	153.068375	36.060783
2005.715175	-21.507891	153.535934	36.528347
2005.718120	-21.274109	154.237289	36.119228
2005.721323	-21.507891	155.464630	35.710110
2005.724676	-22.443016	155.406204	36.060783
2005.727981	-21.683226	156.049103	35.943893
2005.731325	-21.566336	156.516663	35.242550
2005.734668	-21.157219	157.802444	34.833431
2005.738071	-21.157219	158.854477	34.482758
2005.741413	-21.040327	159.964935	33.372299
2005.744643	-20.981882	160.490936	33.489189
2005.747552	-19.929865	162.127411	32.028053
2005.750881	-20.163647	163.471649	31.852718
2005.754216	-19.637638	165.108124	31.209818
2005.757561	-18.527178	166.218597	29.398012
2005.760887	-18.176504	167.796616	28.755114
2005.764213	-18.351841	169.316177	27.703098
2005.767597	-17.650497	171.069550	27.060200
2005.770460	-17.592052	172.939804	25.014612
2005.773793	-16.890707	174.868500	23.553476
2005.777127	-16.832262	176.563416	23.144360
2005.780483	-16.832262	178.316772	20.864992
2005.783793	-16.247808	180.537704	19.637638
2005.787123	-15.838690	182.583282	19.053185
2005.790457	-15.955583	184.687317	17.007599
2005.793800	-16.189363	186.557571	15.897136
2005.797125	-16.247808	189.129166	14.436002
2005.800455	-17.124489	190.707184	13.442431
2005.803789	-16.598480	192.986557	11.513735
2005.807122	-17.241379	195.265930	9.701928
2005.810453	-18.585623	196.843948	9.409702
2005.813787	-18.293396	199.357101	8.299240
2005.817117	-18.877850	201.402695	6.078317
2005.820452	-18.702513	203.915833	4.850964
2005.823790	-20.222092	206.195206	3.506721
2005.827120	-20.631210	207.948563	2.104033
2005.830455	-21.917007	210.286377	0.292227
2005.833786	-22.676798	212.273529	-2.279369
2005.837115	-22.969025	214.552902	-4.149620
2005.840449	-23.962595	217.124481	-4.441847
2005.843783	-24.488602	218.936295	-6.896552
2005.847173	-24.430157	221.566345	-8.766803
2005.850452	-25.189949	223.495026	-9.643483
2005.853812	-26.008183	226.651077	-12.098188
2005.857118	-25.832848	229.222687	-13.267096
2005.860454	-26.183519	231.852722	-15.838690
2005.863790	-26.125072	234.950333	-17.533606
2005.867126	-27.060200	237.288147	-19.579193
2005.870447	-26.767973	240.151947	-21.975452
2005.873784	-26.884863	243.307999	-24.663939
2005.877119	-26.183519	246.814728	-28.053770
2005.880449	-26.125072	250.087662	-30.917591
2005.883782	-26.417299	253.535934	-34.015198
2005.887117	-25.365284	257.276428	-36.762127
2005.890448	-24.605494	260.900055	-40.677963
2005.893783	-24.313267	264.757446	-44.360023
2005.897130	-23.962595	268.790161	-47.866745
2005.900449	-23.261251	272.822906	-52.776154
2005.903783	-22.910578	276.621857	-56.750443
2005.907111	-22.735243	280.713043	-61.484509
2005.910446	-22.384571	285.213318	-66.861488
2005.914726	-21.683226	293.980133	-77.089424
2005.918380	-21.858562	298.188171	-82.115723
2005.921303	-21.624781	302.980713	-87.492691
2005.924612	-22.092344	307.539429	-93.571014
2005.927981	-22.618351	311.864410	-100.000000
2005.931318	-22.793688	316.656921	-105.376968
2005.934752	-23.144360	321.507874	-111.338402
2005.938059	-23.611923	325.014618	-117.884277
2005.941334	-24.839275	329.924011	-124.137924
2005.944625	-25.774401	334.891876	-131.209808
2005.947528	-26.826418	339.625946	-137.814148
2005.950867	-28.229105	344.009338	-143.775574
2005.954198	-29.398012	348.568085	-150.438339
2005.957529	-31.151373	353.360596	-157.393341
2005.960884	-33.080070	357.218018	-164.406769
2005.964222	-34.599651	362.594971	-171.069550
2005.967559	-36.937462	366.452362	-177.790756
2005.970930	-38.515488	371.069550	-185.914673
2005.973776	-40.444183	375.043854	-193.512573
2005.977133	-42.840446	379.427246	-200.116898
2005.980440	-44.184689	383.401520	-208.182358
2005.983784	-45.996494	387.843384	-215.312668
2005.987106	-48.158970	391.759216	-224.254822
2005.990436	-49.152542	396.142609	-232.437180
2005.993770	-50.672119	399.707764	-241.613098
2005.997100	-52.308590	403.974304	-250.496796
2006.000438	-52.951492	406.721222	-260.315613
2006.003766	-54.120399	411.572174	-270.075989
2006.007105	-54.880188	415.488007	-280.946808
2006.010438	-55.523087	419.228516	-291.700775
2006.013769	-55.873756	423.378143	-302.571594
2006.017100	-56.107540	426.300415	-314.494446
2006.020449	-56.633549	429.514893	-328.579773
2006.023764	-56.808884	432.904724	-341.379303
2006.027097	-57.101112	435.476349	-355.172424
2006.030429	-57.334892	438.340149	-369.842194
2006.033762	-57.451786	441.262451	-384.278198
2006.037164	-57.510227	442.665100	-398.889526
2006.040437	-57.860901	444.126221	-414.202209
2006.043771	-58.094681	445.119812	-430.683807
2006.047095	-58.562244	445.412018	-446.873199
2006.050430	-58.503799	445.353607	-463.237854
2006.053764	-59.731148	444.593811	-481.063690
2006.057099	-60.841614	443.775574	-498.188202
2006.060433	-62.302746	442.255981	-515.604919
2006.063784	-63.237869	439.859711	-532.612488
2006.067097	-65.809471	436.995880	-550.438354
2006.070424	-67.387489	433.898315	-568.907043
2006.073765	-70.017532	429.924011	-586.966675
2006.077091	-73.173584	425.774384	-605.318542
2006.080425	-76.738754	419.228516	-622.209229
2006.083763	-79.894798	413.910004	-640.035034
2006.087095	-84.336647	407.130341	-657.802429
2006.090431	-88.895378	399.941559	-674.693176
2006.093783	-92.928108	392.752777	-692.168335
2006.097090	-98.188194	384.453522	-708.065491
2006.100423	-102.863823	375.628296	-723.670410
2006.103760	-107.773232	366.744598	-739.976624
2006.107084	-112.682640	356.107544	-756.165955
2006.110444	-117.708946	346.171844	-770.777344
2006.115030	-127.761543	323.027466	-800.935181
2006.118400	-132.554062	311.338409	-815.488037
2006.121299	-136.177673	298.305084	-830.391602
2006.124672	-140.035065	285.271759	-844.418457
2006.127962	-143.132675	271.186462	-858.503845
2006.131352	-146.580948	256.692017	-872.121521
2006.134683	-149.561661	242.255997	-884.511963
2006.137973	-151.899475	227.527756	-898.831055
2006.141270	-153.711288	211.396835	-911.981323
2006.144605	-155.756866	194.739914	-924.254822
2006.147509	-156.165985	176.680298	-936.820618
2006.150852	-156.341324	159.146698	-948.918701
2006.154178	-156.633545	140.327301	-960.549377
2006.157550	-157.334885	121.274117	-971.303345
2006.160868	-157.334885	101.402687	-982.174194
2006.164200	-156.458206	80.946815	-991.759216
2006.167551	-155.932205	60.549385	-1001.227356
2006.170852	-155.172424	39.333721	-1008.007080
2006.173751	-153.769714	18.234951	-1015.780273
2006.177081	-153.009933	-4.617183	-1021.741699
2006.180441	-152.250153	-27.177090	-1026.008179
2006.183754	-151.431900	-49.269432	-1029.398071
2006.187081	-150.204559	-70.835770	-1029.748779
2006.190417	-150.087662	-92.928108	-1032.144897
2006.193753	-149.503220	-114.552895	-1031.852783
2006.197085	-149.210983	-136.586792	-1031.326660
2006.200416	-149.853882	-157.451782	-1027.352417
2006.203754	-150.321442	-177.732330	-1021.683228
2006.207082	-150.496780	-197.603745	-1016.481567
2006.210436	-152.191696	-217.358276	-1010.344788
2006.213750	-153.009933	-235.826996	-1001.636475
2006.217083	-155.230850	-253.126831	-992.928101
2006.220419	-156.867325	-269.783752	-982.057312
2006.223743	-158.445358	-286.090027	-971.712524
2006.227082	-160.607834	-301.636475	-960.257141
2006.230414	-162.945633	-316.306244	-948.626526
2006.233750	-164.757462	-330.274689	-935.242554
2006.237081	-166.393921	-343.015778	-921.916992
2006.240413	-167.504379	-354.821747	-908.182312
2006.243745	-168.731735	-366.978394	-893.454102
2006.247106	-170.017532	-377.089417	-878.199890
2006.250413	-171.595566	-387.083588	-862.653442
2006.253750	-171.478668	-395.032135	-847.749878
2006.257075	-171.537109	-403.682037	-832.320312
2006.260411	-171.128006	-411.046173	-816.189392
2006.263737	-170.485092	-418.468719	-800.876709
2006.267078	-169.257751	-425.014587	-785.797791
2006.270406	-168.264175	-430.800720	-767.153687
2006.273737	-166.510803	-436.177673	-751.548828
2006.277076	-164.406769	-441.437775	-734.541199
2006.280404	-162.302750	-445.879608	-718.527161
2006.283744	-159.205139	-450.789032	-701.870239
2006.287079	-156.049103	-453.945068	-685.622437
2006.290428	-152.600815	-457.334900	-669.199280
2006.293737	-148.860306	-460.432495	-651.724121
2006.297071	-145.938049	-463.062531	-633.898315
2006.300412	-141.028641	-464.757446	-617.182922
2006.303736	-137.405029	-466.335480	-599.123352
2006.307073	-134.073639	-467.036804	-580.362366
2006.310414	-130.566925	-468.147278	-562.945679
2006.313741	-127.060196	-468.030396	-545.353577
2006.318367	-118.410286	-467.971954	-508.825256
2006.321705	-115.663353	-466.569275	-491.408539
2006.324630	-112.039742	-465.751038	-472.647583
2006.327995	-109.526596	-463.763916	-456.165985
2006.331336	-107.481003	-461.659851	-438.807739
2006.334707	-105.669197	-459.555817	-421.683228
2006.337925	-103.565170	-457.042633	-405.493866
2006.341273	-101.402687	-454.003540	-389.596710
2006.344587	-99.883110	-451.315033	-374.693146
2006.347940	-99.123314	-448.392761	-359.322021
2006.351271	-97.954407	-444.360016	-344.243134
2006.354190	-96.551720	-441.379303	-331.268250
2006.357525	-95.558151	-437.814148	-318.234955
2006.360848	-95.265923	-433.898315	-305.552307
2006.364173	-94.623032	-430.216278	-293.571014
2006.367492	-94.506142	-426.183502	-281.472839
2006.370843	-94.213905	-421.975464	-270.835754
2006.374169	-93.103447	-418.527161	-260.841614
2006.377100	-93.512566	-414.260681	-250.555237
2006.380402	-93.220345	-410.286377	-240.035065
2006.383728	-92.928108	-405.902954	-231.209824
2006.387066	-91.759201	-402.045593	-223.319702
2006.390396	-91.817650	-397.954407	-214.552902
2006.393727	-91.057861	-393.863251	-206.721207
2006.397068	-90.356514	-389.888947	-198.246628
2006.400399	-88.953827	-385.797791	-191.583878
2006.403732	-88.077148	-382.466400	-183.459961
2006.407061	-86.265343	-378.258331	-176.504974
2006.410391	-85.622444	-374.400940	-170.251312
2006.413726	-83.985970	-370.075989	-163.062531
2006.417061	-82.115723	-366.686157	-156.867325
2006.420428	-80.537697	-362.945648	-151.548798
2006.423726	-78.667442	-358.679138	-145.236710
2006.427061	-77.732315	-354.646393	-138.983047
2006.430388	-75.745178	-350.672119	-133.722977
2006.433721	-73.641144	-346.931610	-127.352432
2006.437060	-72.063118	-342.781982	-121.683228
2006.440393	-69.959084	-338.924591	-115.254234
2006.443722	-68.147285	-335.184082	-110.812393
2006.447052	-66.627708	-331.385162	-104.032730
2006.450398	-65.166565	-327.469330	-98.947983
2006.453720	-63.120979	-322.969025	-93.863235
2006.457056	-61.133839	-319.228516	-88.720047
2006.460389	-60.257160	-314.669769	-83.284630
2006.463741	-59.029804	-311.396851	-78.901222
2006.467058	-57.334892	-307.130341	-72.822914
2006.470393	-56.808884	-303.156036	-68.088837
2006.473719	-56.341320	-299.357117	-64.056107
2006.477050	-54.880188	-295.675049	-59.555817
2006.480389	-54.237289	-291.817627	-55.055523
2006.483722	-54.354179	-288.720032	-51.315022
2006.487056	-53.594387	-285.271759	-47.282291
2006.490387	-53.243713	-281.589722	-43.366451
2006.493723	-52.542370	-278.725891	-40.385738
2006.497050	-52.016365	-275.628296	-36.645237
2006.500388	-52.834599	-272.647583	-33.430744
2006.503722	-52.951492	-269.842194	-30.800701
2006.507093	-53.360603	-266.686157	-27.995323
2006.510387	-52.951492	-263.997681	-25.540621
2006.513725	-53.360603	-262.244293	-23.144360
2006.517052	-53.302162	-259.848053	-21.507891
2006.521788	-53.126823	-255.289322	-17.475161
2006.524601	-52.951492	-253.886597	-15.897136
2006.527973	-52.951492	-250.730560	-14.260666
2006.531316	-52.834599	-249.269440	-13.033314
2006.534643	-52.600819	-247.808289	-10.578609
2006.537901	-52.717709	-245.879608	-10.695500
2006.541224	-52.133255	-243.892456	-9.701928
2006.544577	-51.665695	-242.548233	-7.539450
2006.547919	-51.315022	-241.028641	-6.428989
2006.550849	-50.789009	-239.216827	-4.734074
2006.554164	-50.321449	-238.047928	-4.617183
2006.557505	-50.146114	-236.469910	-3.798948
2006.560832	-49.386322	-235.242554	-3.039158
2006.564147	-48.626534	-233.547638	-1.870251
2006.567470	-47.691406	-232.086487	0.000000
2006.570811	-46.697838	-230.508469	0.993571
2006.574147	-45.938049	-228.638214	3.156049
2006.577467	-45.528931	-227.352432	4.032730
2006.580376	-44.067799	-225.832840	4.734074
