time (s)	magX	magY	magZ
2383.350326	7.539450	-428.813538	-450.204559
2383.353648	7.831677	-429.748688	-466.277039
2383.356877	9.175920	-430.391602	-484.804199
2383.360211	9.994155	-430.917603	-503.097595
2383.363546	9.994155	-431.969604	-520.572754
2383.366901	10.812390	-430.800720	-538.807739
2383.370236	11.630626	-430.333130	-556.750427
2383.373646	12.624197	-428.988892	-575.219177
2383.376974	13.851549	-426.943298	-592.051392
2383.379818	15.195791	-424.605499	-610.929321
2383.383126	16.072474	-422.559937	-628.112244
2383.386458	17.825832	-418.760956	-645.879578
2383.389779	19.228521	-415.429596	-663.646973
2383.393148	20.689655	-410.987701	-681.414368
2383.396447	21.975452	-406.662750	-698.714233
2383.399783	23.378141	-401.110474	-715.546448
2383.403115	25.540621	-395.207489	-731.209778
2383.406028	26.884863	-389.362946	-747.632996
2383.409360	29.807129	-382.524841	-763.471680
2383.412686	31.911165	-374.751617	-779.193420
2383.416029	33.722969	-366.803040	-794.389221
2383.419360	36.586792	-358.036224	-809.351257
2383.422732	39.158386	-348.626556	-824.371704
2383.426023	41.320866	-338.924591	-837.872620
2383.429352	43.424900	-328.345978	-852.250122
2383.432687	45.821156	-316.949158	-864.640503
2383.436055	47.516071	-305.143188	-877.966125
2383.439360	49.970776	-292.460571	-890.122681
2383.442690	52.250145	-279.018127	-900.818237
2383.446024	54.003506	-265.283478	-911.221497
2383.449367	55.873756	-250.964355	-920.748169
2383.452690	57.159554	-236.177689	-929.456421
2383.456025	58.737583	-220.338989	-937.872620
2383.459357	60.081821	-204.149628	-945.704285
2383.462684	60.549385	-187.492691	-952.074829
2383.466017	62.010521	-168.965515	-957.860962
2383.469350	62.302746	-151.841034	-963.179382
2383.472683	63.237869	-133.196960	-966.393921
2383.476019	62.945644	-113.208649	-968.614868
2383.479366	62.770306	-94.564583	-969.842224
2383.482684	63.120979	-75.511398	-970.660400
2383.486018	62.536526	-55.756866	-969.491455
2383.489366	62.010521	-36.294563	-966.978333
2383.492694	61.133839	-16.130919	-963.939209
2383.496019	60.607834	4.091175	-960.841675
2383.499354	58.620689	24.254822	-955.464661
2383.502681	58.328461	43.015781	-948.860352
2383.506015	56.633549	62.536526	-942.665100
2383.509347	55.756866	81.180595	-934.132080
2383.512685	55.464642	99.824661	-925.482178
2383.516009	54.120399	118.293396	-917.475098
2383.519349	53.126823	136.119217	-907.071899
2383.522715	52.659260	153.009933	-896.317932
2383.526012	52.133255	169.374634	-885.447144
2383.529343	51.315022	185.447113	-874.225586
2383.532675	50.789009	200.935120	-862.185852
2383.536018	50.146114	216.189362	-850.087646
2383.539348	49.736996	230.566925	-836.411499
2383.542677	49.561657	244.593811	-822.910583
2383.546010	48.743423	257.860901	-809.526611
2383.550263	48.626534	281.823486	-781.881958
2383.553624	48.158970	293.921692	-766.043213
2383.556858	48.217415	305.376984	-751.431885
2383.560192	48.100525	316.130920	-736.937500
2383.563519	47.925190	326.358856	-721.624817
2383.566919	47.457626	334.833435	-707.130310
2383.570208	46.522503	344.476929	-691.466980
2383.573599	46.054939	353.009949	-676.797180
2383.576938	45.178257	360.900055	-659.906494
2383.579823	44.009354	368.264160	-643.892456
2383.583096	43.249561	375.569855	-627.352417
2383.586437	42.431328	381.239044	-612.448853
2383.589763	40.794857	386.849792	-595.733521
2383.593096	39.742840	392.460571	-579.251892
2383.596454	37.931034	397.136200	-562.887207
2383.599773	36.060783	401.402710	-548.568115
2383.603096	35.300995	404.558746	-531.618958
2383.606000	33.606079	408.006989	-516.481567
2383.609353	31.560490	410.812378	-501.461121
2383.612673	30.450027	413.033295	-485.330200
2383.616001	28.287550	414.728210	-470.134399
2383.619337	26.417299	415.897125	-455.113983
2383.622717	24.371712	416.656921	-439.742859
2383.626006	22.676798	417.007599	-426.534180
2383.629339	20.923437	417.066040	-411.396851
2383.632671	19.345411	416.773804	-398.246643
2383.636001	17.475161	415.721802	-385.622467
2383.639334	15.371127	414.903534	-372.296906
2383.642668	13.851549	413.500885	-360.140289
2383.645996	11.922852	410.812378	-347.516083
2383.649331	10.637054	409.643494	-334.833435
2383.652697	8.883694	407.481018	-324.254822
2383.655999	7.948568	404.967834	-312.741089
2383.659334	7.364114	401.987122	-302.104034
2383.662666	6.195207	400.000000	-291.759216
2383.666005	5.435418	397.136200	-281.648163
2383.669331	3.798948	393.220337	-272.296906
2383.672666	3.097604	390.005859	-262.945648
2383.676001	2.396260	386.966675	-254.295731
2383.679334	1.870251	383.927551	-244.009354
2383.682658	1.052016	380.070129	-235.710114
2383.685994	0.876680	376.504974	-227.293991
2383.689331	0.701344	373.348938	-219.637634
2383.692667	-0.876680	369.316193	-211.630630
2383.696020	-0.526008	366.101685	-203.857391
2383.699329	-1.227352	361.192261	-196.727066
2383.702662	-1.753361	357.568665	-188.953827
2383.706003	-2.104033	354.529510	-182.817062
2383.709346	-2.571596	349.853882	-175.452942
2383.712663	-2.513150	345.587372	-168.264175
2383.715994	-3.156049	341.496216	-161.367615
2383.719323	-4.149620	338.340149	-154.646408
2383.722660	-4.091175	334.073639	-149.152542
2383.725989	-5.143191	330.274689	-142.197556
2383.729329	-5.260082	325.891266	-135.943893
2383.732659	-6.019871	322.033905	-130.099350
2383.735986	-6.253653	317.708954	-124.021042
2383.739344	-7.071887	314.436005	-118.234955
2383.742651	-7.597896	310.344849	-112.682640
2383.745993	-8.825249	305.902985	-107.539452
2383.750259	-9.701928	297.837524	-97.545296
2383.753653	-10.520164	294.097015	-92.635887
2383.756841	-11.163063	290.181183	-87.784920
2383.760173	-11.805962	286.440674	-82.817062
2383.763517	-12.857978	283.518402	-78.082993
2383.766859	-13.676212	278.959686	-74.400940
2383.770221	-14.202221	275.920502	-69.666862
2383.773605	-14.903564	272.355347	-65.867912
2383.776919	-15.137346	268.614838	-62.536526
2383.779771	-16.306253	264.991241	-58.503799
2383.783080	-16.715372	261.952057	-55.523087
2383.786403	-16.773817	258.503784	-52.250145
2383.789744	-17.650497	255.581528	-49.035652
2383.793085	-18.118059	251.724152	-46.931618
2383.796427	-18.234951	249.678543	-43.541790
2383.799747	-17.825832	246.697830	-41.846874
2383.803074	-18.234951	243.834015	-38.983051
2383.805988	-19.170076	241.028641	-37.171246
2383.809316	-19.053185	238.866165	-33.956753
2383.812653	-18.994740	236.119217	-32.203392
2383.815982	-20.163647	234.190536	-30.566919
2383.819319	-20.046755	231.735825	-28.053770
2383.822716	-19.988310	229.222687	-25.774401
2383.826008	-20.163647	227.118637	-23.261251
2383.829313	-20.280537	224.722382	-21.917007
2383.832651	-20.222092	221.975449	-20.338982
2383.835985	-20.222092	220.222092	-19.170076
2383.839318	-20.046755	218.468735	-17.066044
2383.842645	-20.397429	216.014023	-15.137346
2383.845981	-20.105202	214.143784	-13.793103
2383.849309	-19.929865	212.273529	-12.507306
2383.852646	-19.637638	210.286377	-10.520164
2383.856003	-19.696083	208.533020	-9.175920
2383.859316	-20.514320	206.019882	-7.481005
2383.862644	-19.988310	204.792526	-5.435418
2383.865977	-20.338982	202.513153	-4.734074
2383.869327	-20.455875	200.701355	-3.039158
2383.872641	-21.449446	198.597305	-0.935126
2383.875977	-21.040327	197.194626	0.292227
2383.879306	-21.624781	195.382828	2.396260
2383.882642	-21.391001	193.454117	3.331385
2383.885975	-21.741673	192.285217	4.675628
2383.889307	-22.443016	190.181183	7.130333
2383.892697	-22.910578	188.310928	8.182350
2383.895975	-22.793688	186.849792	8.299240
2383.899345	-22.676798	185.154877	9.760374
2383.902644	-23.319696	183.576859	11.630626
2383.905976	-23.436586	182.466400	12.331969
2383.909311	-23.319696	181.239044	13.851549
2383.912668	-23.787258	179.894791	14.202221
2383.915974	-23.495031	178.141434	15.488018
2383.919309	-24.605494	176.446518	16.247808
2383.922643	-24.780828	175.978958	15.897136
2383.925978	-24.547049	175.336060	16.832262
2383.929302	-24.839275	174.050262	17.182934
2383.932637	-24.605494	173.582703	17.592052
2383.935974	-25.306839	172.939804	18.585623
2383.939310	-24.897720	171.712448	19.228521
2383.942664	-25.423729	171.420212	19.696083
2383.947348	-25.949738	170.017532	20.864992
2383.950241	-26.008183	169.082397	20.572765
2383.953910	-25.306839	168.614838	20.631210
2383.956843	-25.657511	168.381058	21.040327
2383.960143	-25.949738	167.504379	21.683226
2383.963510	-25.599066	167.387497	21.741673
2383.966849	-25.774401	167.445938	21.507891
2383.970241	-25.832848	166.861481	22.033899
2383.973576	-25.423729	166.686157	21.800117
2383.976829	-24.956165	166.043243	22.384571
2383.979728	-25.306839	166.160141	21.917007
2383.983058	-25.306839	165.108124	21.624781
2383.986426	-25.482174	164.874344	21.975452
2383.989731	-24.663939	164.932785	22.150789
2383.993059	-24.663939	164.289886	22.676798
2383.996387	-25.248394	164.815903	22.969025
2383.999748	-24.780828	164.114563	23.436586
2384.003077	-25.014612	163.471649	22.852133
2384.005965	-25.657511	163.296326	23.319696
2384.009294	-25.131502	163.705429	24.196377
2384.012675	-25.599066	163.004089	24.196377
2384.015964	-25.014612	163.120987	24.371712
2384.019300	-25.540621	163.705429	24.897720
2384.022667	-25.599066	163.237869	24.079485
2384.025960	-25.715956	162.945633	24.254822
2384.029321	-25.657511	163.179428	24.313267
2384.032633	-26.183519	162.361191	24.663939
2384.035964	-26.709526	163.179428	24.547049
2384.039293	-26.709526	163.237869	24.547049
2384.042625	-26.767973	163.705429	24.371712
2384.045966	-26.709526	163.296326	24.605494
2384.049290	-27.001753	163.705429	24.137930
2384.052630	-26.943308	164.114563	24.605494
2384.055963	-27.118645	165.166565	23.962595
2384.059296	-27.469316	164.932785	23.202805
2384.062625	-27.703098	165.458801	23.378141
2384.065978	-27.352425	166.335480	23.261251
2384.069286	-27.819988	166.452377	22.676798
2384.072625	-27.469316	167.445938	22.793688
2384.076011	-27.644651	168.205719	21.215664
2384.079290	-27.819988	168.790192	21.040327
2384.082628	-27.819988	169.257751	20.864992
2384.085957	-28.229105	170.835770	20.046755
2384.089287	-28.755114	171.829346	19.170076
2384.092620	-28.053770	172.706024	18.468731
2384.095952	-28.345997	173.641144	17.299826
2384.099291	-27.703098	174.810059	17.358271
2384.102619	-28.404442	175.569839	15.721800
2384.105955	-28.287550	176.972534	15.312682
2384.109325	-27.995323	177.381653	15.020455
2384.112620	-27.936878	178.842789	13.909994
2384.115954	-27.586206	180.303925	12.916424
2384.119287	-27.703098	181.998840	12.273524
2384.122618	-27.352425	182.524841	10.637054
2384.125949	-26.651081	184.102875	9.994155
2384.129282	-27.001753	185.330215	9.760374
2384.132621	-27.001753	187.142029	8.591467
2384.135954	-26.943308	187.784927	7.422560
2384.139318	-26.534191	189.246063	6.838106
2384.143889	-26.651081	191.525421	5.844535
2384.147276	-26.767973	193.746353	3.974284
2384.150170	-26.826418	194.798355	3.389831
2384.153543	-26.475746	196.727066	2.045588
2384.156892	-27.001753	197.720642	1.519579
2384.160229	-27.060200	199.824661	0.818235
2384.163569	-27.761543	201.870255	-2.688486
2384.166800	-28.053770	202.922272	-2.571596
2384.170135	-28.053770	204.558731	-4.324956
2384.173475	-28.170660	206.195206	-5.552309
2384.176841	-28.345997	208.182358	-6.838106
2384.179699	-28.638224	210.111053	-7.831677
2384.183069	-29.514902	211.981293	-9.818819
2384.186391	-28.988895	214.260681	-11.221508
2384.189727	-29.865574	216.598480	-12.448860
2384.193090	-29.807129	218.760971	-15.312682
2384.196378	-30.216248	220.514328	-16.540035
2384.199705	-30.216248	223.670364	-18.468731
2384.203067	-30.391582	225.306839	-20.631210
2384.205942	-30.157801	227.469330	-22.852133
2384.209280	-30.976036	230.566925	-24.839275
2384.212612	-31.677380	233.080078	-27.177090
2384.215941	-31.268263	235.651657	-30.976036
2384.219275	-31.385153	238.632370	-33.255405
2384.222612	-31.560490	240.970184	-36.820572
2384.225942	-31.911165	244.418472	-37.989479
2384.229275	-31.502045	247.106964	-41.087086
2384.232608	-32.320282	250.029236	-45.002922
2384.235946	-31.560490	253.243713	-47.516071
2384.239296	-31.735825	256.516663	-51.022793
2384.242611	-32.086502	259.906494	-54.412621
2384.245941	-31.618935	262.594971	-57.451786
2384.249330	-31.677380	265.867920	-61.952072
2384.252605	-31.618935	269.666870	-65.225014
2384.255942	-31.560490	272.939789	-69.082413
2384.259272	-31.385153	275.920502	-72.822914
2384.262608	-30.917591	279.777893	-76.738754
2384.265941	-31.209818	282.466400	-80.128578
2384.269269	-31.618935	285.797791	-84.044418
2384.272612	-31.385153	288.895386	-88.018707
2384.275936	-31.560490	293.337219	-91.876099
2384.279277	-31.677380	296.493256	-97.194626
2384.282637	-31.560490	300.292236	-100.876678
2384.285942	-30.976036	304.149628	-106.136765
2384.289273	-31.268263	307.071869	-110.753944
2384.292602	-31.326708	310.870850	-115.312683
2384.295930	-31.502045	314.494446	-120.806549
2384.299269	-31.969610	318.527161	-125.715958
2384.302607	-32.554062	322.033905	-131.326706
2384.305939	-33.138515	325.599060	-136.879013
2384.309269	-33.489189	329.164246	-142.431335
2384.312617	-33.722969	333.138519	-147.925186
2384.315940	-34.190533	336.995911	-153.652832
2384.319266	-34.891876	341.262421	-160.140259
2384.322597	-35.359440	344.710693	-166.452377
2384.325955	-36.353008	348.392761	-173.699600
2384.329270	-37.112801	352.367035	-181.472824
2384.332597	-37.580360	356.165985	-188.135590
2384.335936	-38.047924	361.309174	-196.434830
2384.339266	-38.749268	364.640564	-204.149628
2384.342601	-38.749268	368.205750	-212.741089
2384.347291	-40.502628	375.803619	-231.092926
2384.350172	-41.262421	379.661011	-239.509064
2384.353525	-41.788429	383.401520	-249.035645
2384.356871	-41.379311	387.375793	-258.445374
2384.360242	-42.606663	390.707184	-268.848633
2384.363464	-42.840446	393.571014	-279.602570
2384.366780	-43.834015	396.960815	-290.239624
2384.370147	-44.301579	400.409119	-302.337799
2384.373471	-44.360023	402.571594	-312.741089
2384.376363	-44.652252	405.084747	-324.254822
2384.379713	-43.834015	407.364136	-336.586792
2384.383048	-44.710697	409.585052	-349.620117
2384.386406	-44.827587	411.981293	-361.835205
2384.389700	-44.886032	413.500885	-373.115143
2384.393045	-45.119812	415.312683	-386.148437
2384.396355	-45.119812	415.604919	-398.655762
2384.399687	-44.944477	416.949127	-412.098175
2384.402591	-45.353596	417.124512	-425.365295
2384.405921	-45.528931	418.059631	-439.158386
2384.409263	-45.704266	417.825836	-451.841034
2384.412610	-45.762711	416.656921	-466.919952
2384.415921	-46.171829	415.897125	-481.239044
2384.419256	-46.580948	414.494476	-494.155457
2384.422591	-46.464054	413.033295	-507.656342
2384.425924	-47.282291	411.221497	-523.027466
2384.429261	-47.749855	409.000580	-537.229675
2384.432592	-48.568089	406.429016	-551.490356
2384.435929	-48.918758	403.039185	-566.803040
2384.439252	-50.321449	398.655762	-581.472839
2384.442585	-50.964348	394.681488	-596.084167
2384.445927	-51.899475	389.888947	-611.104614
2384.449254	-53.360603	385.154877	-626.943298
2384.452589	-54.529510	378.725891	-642.022217
2384.455951	-56.049095	372.121582	-657.334900
2384.459249	-57.510227	364.815918	-672.939819
2384.462590	-58.737583	356.633545	-688.953857
2384.465916	-60.666275	347.866760	-704.383423
2384.469251	-62.185852	338.573944	-718.644043
2384.472586	-62.594975	329.339569	-734.833435
2384.475920	-64.699005	318.118042	-750.321411
2384.479249	-66.277031	306.662781	-765.809509
2384.482583	-66.861488	294.915253	-781.589722
2384.485918	-68.907074	281.765045	-797.019287
2384.489250	-69.374634	268.264160	-812.098206
2384.492583	-70.368210	254.880188	-826.826355
2384.495920	-71.712448	239.976624	-841.496155
2384.499271	-72.355347	225.657516	-853.769653
2384.502582	-72.647568	209.351257	-867.329041
2384.505919	-73.641144	192.752777	-880.362305
2384.509242	-73.407364	176.271194	-892.811218
2384.512576	-72.472237	158.971359	-905.026367
2384.515980	-73.348923	141.963776	-916.013977
2384.519254	-73.407364	124.488602	-925.189941
2384.522577	-73.524254	105.260086	-935.651672
2384.525910	-72.589127	87.609581	-943.483337
2384.529246	-72.589127	68.965515	-951.782593
2384.532579	-72.413788	50.146114	-958.562256
2384.535916	-71.244881	32.203392	-964.698975
2384.539247	-70.660431	14.026885	-970.835754
2384.543902	-70.251312	-23.319696	-977.381592
2384.546816	-69.433083	-40.736408	-980.187012
2384.550126	-69.433083	-58.679134	-981.531250
2384.553504	-69.199303	-76.738754	-983.343018
2384.556838	-68.731735	-94.389252	-982.583313
2384.560094	-68.731735	-111.689064	-982.758606
2384.563429	-68.264175	-128.229111	-980.128601
2384.566784	-68.790176	-145.412033	-977.907654
2384.570110	-68.322617	-161.718292	-974.634766
2384.573450	-68.848625	-177.790756	-969.316223
2384.576357	-69.023964	-193.571014	-964.991211
2384.579693	-69.257744	-209.117477	-959.497375
2384.583028	-70.075974	-224.488586	-951.957886
2384.586364	-70.835770	-239.392166	-944.243164
2384.589673	-70.952660	-253.477509	-935.885437
2384.593006	-71.186440	-267.095245	-926.768005
2384.596337	-72.355347	-281.180603	-916.072449
2384.599665	-72.939804	-294.097015	-905.493835
2384.602573	-73.056694	-307.773224	-893.045044
2384.605901	-72.822914	-319.228516	-881.414429
2384.609235	-73.699593	-331.092926	-868.731689
2384.612567	-73.582703	-342.080658	-854.237244
2384.615904	-74.342491	-352.425476	-840.385742
2384.619236	-74.167160	-363.062531	-824.663940
2384.622569	-74.108711	-372.822906	-809.351257
2384.625903	-73.641144	-381.239044	-793.337280
2384.629257	-72.472237	-389.596710	-776.446533
2384.632566	-71.946228	-397.369965	-759.731140
2384.635969	-71.595558	-404.324951	-743.834045
2384.639235	-70.543541	-410.286377	-726.651123
2384.642574	-70.017532	-416.014008	-709.935730
2384.645901	-68.790176	-421.098755	-691.992981
2384.649234	-67.855057	-426.125061	-673.758057
2384.652567	-66.452370	-429.807129	-656.925781
2384.655903	-65.809471	-432.670959	-640.385742
2384.659237	-64.289894	-436.060760	-621.683228
2384.662563	-62.594975	-438.515472	-605.376953
2384.665898	-61.309177	-440.151978	-588.077148
2384.669229	-60.023380	-441.729980	-571.011108
2384.672595	-58.386909	-442.197571	-555.230835
2384.675897	-57.334892	-442.782013	-539.216858
2384.679228	-56.399769	-443.483337	-523.144348
2384.682568	-54.938633	-443.483337	-507.890137
2384.685899	-54.471069	-443.249573	-493.044983
2384.689230	-53.185272	-442.372894	-476.563416
2384.692559	-53.126823	-441.554626	-461.542938
2384.695901	-51.256573	-439.918182	-447.925171
2384.699226	-50.905903	-439.041504	-434.132111
2384.702561	-50.321449	-437.112793	-420.163635
2384.705888	-50.146114	-435.417877	-407.188782
2384.709263	-49.444767	-433.138519	-393.746338
2384.712564	-49.269432	-430.859131	-380.362366
2384.715922	-48.626534	-428.755096	-367.913513
2384.719222	-48.392754	-426.358856	-355.406189
2384.722555	-48.509644	-423.319672	-343.541779
2384.725892	-48.100525	-419.812958	-331.502045
2384.729226	-47.457626	-417.416718	-320.806549
2384.732561	-47.516071	-414.143738	-308.357697
2384.735892	-46.990063	-411.396851	-297.486847
2384.739230	-47.457626	-407.481018	-285.505554
2384.743918	-47.574516	-400.935120	-263.997681
2384.746805	-46.464054	-396.960815	-254.120392
2384.750208	-46.522503	-393.746338	-243.541794
2384.753481	-46.171829	-389.655151	-234.190536
2384.756808	-46.756283	-385.505554	-224.547058
2384.760103	-45.938049	-381.940399	-214.319107
2384.763403	-45.762711	-377.790771	-205.902985
2384.766769	-44.944477	-374.167145	-196.668610
2384.770109	-44.126244	-368.790161	-188.310928
2384.772976	-44.360023	-366.160126	-179.661011
2384.776362	-43.950905	-362.010529	-171.946228
2384.779677	-43.191116	-357.860901	-163.822327
2384.783004	-42.898891	-353.419037	-156.516663
