time (s)	magX	magY	magZ
2408.200317	414.459961	283.632935	627.310364
2408.203645	412.122162	283.223846	643.499695
2408.206971	411.537689	285.210968	659.279968
2408.210330	409.258331	284.158966	675.703064
2408.213644	407.797180	284.451172	693.762695
2408.216972	404.290466	282.580933	710.770264
2408.220311	402.244873	282.347168	731.810669
2408.223649	399.088837	281.528931	748.526001
2408.226975	394.997650	280.360016	766.819336
2408.230306	389.620697	279.950867	784.060730
2408.233637	385.354156	277.028625	802.646423
2408.236975	378.925171	275.684387	818.601990
2408.240328	372.671539	274.632355	838.005798
2408.243642	365.424286	272.411438	855.305664
2408.246972	359.462891	270.365845	871.787231
2408.250305	352.157227	268.846283	891.191101
2408.253637	344.793091	265.398010	910.536560
2408.257002	336.084747	262.651062	927.018127
2408.260303	327.668610	259.085907	943.674988
2408.263641	318.434235	255.579208	959.221558
2408.268273	297.160126	246.929276	992.476929
2408.271147	286.406189	241.727646	1006.796021
2408.274507	276.645813	237.168900	1024.212769
2408.277840	264.372314	232.025711	1040.402100
2408.281228	252.215668	225.596725	1053.727539
2408.284117	240.351257	220.219742	1069.566284
2408.287422	226.733490	213.498535	1085.112793
2408.290730	212.706604	206.309769	1097.152466
2408.294055	198.329041	198.302734	1113.867920
2408.297410	183.542389	190.646408	1127.953247
2408.300727	168.405029	182.405609	1140.752808
2408.304057	152.683228	173.463470	1152.149536
2408.306971	136.084747	164.579773	1163.020386
2408.310296	120.362946	154.468735	1175.060181
2408.313632	102.361778	143.773239	1184.879028
2408.316967	85.471069	133.895981	1196.334351
2408.320299	67.060783	123.551147	1203.932129
2408.323631	49.059616	112.388077	1209.776733
2408.326978	30.532438	101.166573	1220.472168
2408.330294	11.070135	89.594391	1224.329590
2408.333626	-7.515488	77.846878	1230.466309
2408.337005	-26.744007	65.924026	1233.096436
2408.340314	-45.738747	54.176506	1235.434204
2408.343632	-64.733482	42.253654	1238.005859
2408.346964	-83.494438	30.564581	1238.531860
2408.350295	-102.080078	19.226183	1237.304443
2408.353626	-121.133263	7.712448	1236.018677
2408.356960	-139.368195	-3.567504	1233.213257
2408.360294	-158.421387	-15.022794	1230.232544
2408.363625	-175.545868	-26.185856	1228.362305
2408.366955	-192.495026	-37.173584	1220.063110
2408.370299	-210.262421	-47.752190	1214.510742
2408.373621	-226.276428	-57.220337	1209.133789
2408.376959	-242.524261	-67.214493	1199.198120
2408.380291	-258.012268	-76.974869	1192.126221
2408.383624	-273.266510	-87.027466	1181.606079
2408.386956	-289.514313	-95.969604	1172.663940
2408.390287	-302.489197	-104.502625	1161.559326
2408.393626	-318.035645	-113.853882	1147.649414
2408.396952	-330.893646	-121.860893	1135.141968
2408.400286	-343.868500	-130.218582	1125.907715
2408.403626	-356.492706	-138.693161	1112.815918
2408.407885	-379.052582	-153.772064	1082.073608
2408.411134	-388.520752	-160.727051	1067.929810
2408.414493	-400.034485	-168.032730	1054.136719
2408.417807	-409.035065	-175.455292	1038.297974
2408.421154	-417.977203	-182.059616	1020.355347
2408.424490	-425.750458	-188.313263	1006.796021
2408.427419	-433.815918	-195.092926	989.379272
2408.430755	-442.290497	-200.645233	969.975464
2408.434066	-448.544128	-206.957336	956.474548
2408.437378	-457.310913	-212.626541	936.661621
2408.440702	-461.986542	-217.769730	920.179993
2408.444063	-467.655762	-222.562256	901.652771
2408.446954	-474.026306	-227.471649	882.716553
2408.450284	-476.831665	-232.030396	864.656921
2408.453623	-482.267090	-235.361771	844.025696
2408.456959	-483.552887	-239.920502	826.433655
2408.460282	-487.001160	-242.901215	808.140259
2408.463613	-489.748108	-246.174179	789.671509
2408.466949	-490.274109	-248.687317	770.735229
2408.470281	-493.605530	-250.849808	752.675598
2408.473613	-494.306824	-252.369370	734.849731
2408.476951	-495.943298	-254.765640	714.393921
2408.480278	-495.709534	-256.811218	699.315002
2408.483606	-495.300415	-256.519012	681.489136
2408.486950	-495.358826	-258.038574	662.085327
2408.490281	-495.300415	-258.681488	649.227356
2408.493689	-492.787292	-259.382812	632.570435
2408.496944	-491.910583	-258.506134	616.088867
2408.500287	-491.793701	-258.447693	600.074768
2408.503616	-490.449402	-258.973724	584.995911
2408.506949	-487.936279	-257.863251	569.683167
2408.510279	-484.020477	-257.161896	556.357666
2408.513618	-484.546478	-256.226776	542.330750
2408.516948	-480.338379	-255.525436	528.420776
2408.520274	-477.649933	-253.947403	513.984802
2408.523610	-475.078339	-254.239609	501.419098
2408.526945	-471.454712	-252.603165	488.268829
2408.530277	-468.883118	-250.616013	475.878448
2408.533609	-467.421967	-249.622452	464.189362
2408.536966	-464.499725	-247.459961	453.084747
2408.540272	-460.934540	-247.050842	440.635864
2408.543608	-457.836975	-244.420792	428.946838
2408.547873	-448.602570	-242.082993	406.737579
2408.551198	-444.803619	-240.037399	395.749847
2408.554525	-441.589111	-239.394501	386.632385
2408.557804	-437.030396	-238.167145	376.404419
2408.561144	-434.108124	-236.180008	366.877838
2408.564454	-428.731140	-234.777313	356.883728
2408.567810	-426.393372	-232.731735	346.889557
2408.570692	-421.425476	-231.562836	337.888947
2408.574049	-416.983643	-228.699005	328.479279
2408.577390	-413.360016	-227.354767	320.355377
2408.580756	-409.794861	-226.010513	311.354797
2408.584057	-404.827026	-224.023376	302.354187
2408.586945	-401.320251	-223.088242	293.587372
2408.590270	-398.047363	-220.165970	285.580383
2408.593605	-392.144348	-218.295731	278.625366
2408.596936	-387.644043	-216.834595	269.975464
2408.600267	-384.663330	-214.964355	263.137360
2408.603599	-378.409729	-213.210983	255.247238
2408.606935	-376.656342	-210.580948	248.467545
2408.610271	-372.331390	-208.535355	241.454117
2408.613609	-368.590881	-206.781998	234.849808
2408.616937	-364.207489	-205.262421	228.245468
2408.620267	-359.940979	-203.216827	223.160721
2408.623627	-355.440674	-201.229691	217.900650
2408.626932	-352.226196	-199.534775	212.056107
2408.630269	-349.596130	-196.904724	205.685562
2408.633598	-345.504974	-194.976044	202.178848
2408.636926	-342.348938	-193.924011	195.632980
2408.640264	-338.783752	-191.469315	191.308014
2408.643596	-335.919922	-190.183517	187.684387
2408.646928	-331.419647	-188.021042	183.593216
2408.650269	-328.964935	-186.501465	178.917587
2408.653594	-325.633545	-184.689651	175.060196
2408.656931	-322.828186	-182.760956	171.085922
2408.660266	-320.607269	-180.715363	167.754517
2408.663595	-317.684998	-179.546463	164.423141
2408.666965	-314.996490	-178.260666	160.857971
2408.670259	-311.489777	-176.799530	157.526596
2408.673614	-309.385742	-175.338394	155.071884
2408.676929	-307.398621	-174.111038	152.734085
2408.681549	-302.255402	-170.955002	146.188202
2408.684474	-298.105774	-170.195206	143.149033
2408.687864	-297.112213	-169.201630	140.518982
2408.691203	-293.137939	-167.740494	138.005844
2408.694540	-290.449463	-167.039154	135.668030
2408.697781	-289.806549	-165.519577	133.154877
2408.701097	-286.299835	-163.941559	129.940384
2408.704030	-284.897125	-163.941559	127.135010
2408.707348	-281.098206	-162.538864	125.206299
2408.710709	-278.935730	-161.311508	122.693161
2408.714015	-276.831665	-159.967270	120.063110
2408.717374	-275.487457	-159.441269	118.368195
2408.720257	-272.623596	-158.798355	115.270599
2408.723585	-271.162476	-157.687897	112.582108
2408.726924	-268.590881	-156.752777	110.361191
2408.730265	-267.129761	-154.999420	108.841614
2408.733590	-264.149048	-154.882523	106.737579
2408.736927	-262.220337	-153.830505	104.692001
2408.740255	-260.466980	-152.603165	102.471069
2408.743586	-259.882507	-151.901810	101.360611
2408.746919	-257.077148	-151.142014	98.964340
2408.750254	-256.434265	-149.388657	97.853882
2408.753613	-254.154907	-149.037994	96.509628
2408.756928	-253.219757	-147.167740	95.106949
2408.760252	-251.291046	-147.226181	93.996490
2408.763581	-249.479279	-147.226181	92.593796
2408.766920	-248.485687	-145.706604	90.665100
2408.770245	-247.083008	-145.648148	90.314438
2408.773584	-246.615448	-143.894806	88.561066
2408.776916	-243.926941	-144.362366	87.450607
2408.780246	-244.686737	-143.894806	86.573929
2408.783584	-242.348938	-143.544128	86.573929
2408.786920	-242.641174	-142.316772	85.288132
2408.790252	-241.647583	-142.492111	85.229691
2408.793583	-241.413818	-142.082993	84.411453
2408.796974	-240.361786	-141.849213	83.885437
2408.800245	-238.959106	-141.615433	82.716537
2408.803578	-238.900665	-141.089432	83.826996
2408.806917	-239.426666	-140.797195	82.424301
2408.810250	-238.257751	-140.738754	81.956741
2408.813578	-236.796631	-140.680298	81.606079
2408.816918	-237.030396	-140.154297	80.963165
2408.821539	-235.803070	-139.394516	80.261826
2408.824459	-235.335480	-139.569839	79.560486
2408.827878	-234.225006	-139.920517	79.443604
2408.831233	-233.932800	-140.037399	79.443604
2408.834496	-233.815918	-140.095856	78.625351
2408.837768	-233.289886	-139.277618	78.508469
2408.841101	-232.939209	-139.452957	79.209824
2408.843993	-232.880798	-139.160721	78.391571
2408.847339	-232.179413	-139.862076	77.807129
2408.850670	-230.016937	-139.336060	77.164230
2408.854003	-230.659851	-139.628296	77.398010
2408.857380	-231.127441	-139.219177	77.456451
2408.860697	-229.257172	-139.569839	76.404434
2408.863570	-230.367615	-139.803619	76.872009
2408.866904	-230.133850	-139.862076	77.047333
2408.870264	-229.549377	-139.978958	76.696671
2408.873571	-229.549377	-139.978958	76.638229
2408.876907	-229.724731	-139.978958	76.755112
2408.880241	-230.484497	-140.446518	75.995331
2408.883572	-229.783173	-140.095856	76.638229
2408.886906	-230.484497	-140.621857	76.287552
2408.890238	-231.010529	-140.388077	76.872009
2408.893570	-230.601410	-141.206314	76.988892
2408.896906	-230.601410	-141.615433	77.690231
2408.900259	-231.653442	-142.316772	77.514893
2408.903569	-232.237885	-142.316772	78.333145
2408.906902	-233.056122	-142.492111	77.807129
2408.910240	-232.939209	-143.310349	78.566925
2408.913578	-233.815918	-143.135010	79.852707
2408.916902	-236.095276	-144.362366	80.378723
2408.920240	-235.861481	-144.771484	82.132080
2408.923577	-236.387482	-145.706604	81.956741
2408.926901	-236.913513	-145.998825	83.242554
2408.930241	-238.082397	-147.518402	84.586792
2408.933570	-238.666870	-147.576859	85.638809
2408.936899	-239.485107	-148.570419	86.573929
2408.940261	-240.654022	-149.271774	87.918167
2408.943590	-242.524261	-149.914673	88.327286
2408.946904	-244.102295	-151.492691	90.489777
2408.950229	-244.452942	-152.310928	90.665100
2408.953570	-246.030975	-153.596725	92.418472
2408.956905	-246.790771	-153.362930	94.230270
2408.960232	-247.550568	-155.057861	94.113388
2408.964862	-250.180603	-156.402100	97.269424
2408.967779	-251.349518	-157.863235	98.847443
2408.971103	-252.810638	-158.915253	99.665695
2408.974517	-253.687347	-159.967270	101.828171
2408.977846	-255.031555	-161.136169	102.646393
2408.981127	-256.200470	-162.421967	103.347748
2408.984404	-256.551147	-163.824661	104.984207
2408.987351	-259.239624	-165.110458	106.270020
2408.990664	-260.116302	-165.870239	106.854462
2408.993988	-261.752777	-167.565170	108.841614
2408.997315	-262.629456	-168.266510	111.179428
2409.000657	-264.032135	-170.078308	113.166565
2409.003557	-265.727081	-171.364105	114.861481
2409.006888	-266.720642	-172.007004	116.731735
2409.010227	-269.526001	-172.708359	118.894211
2409.013561	-270.694916	-174.987732	120.706024
2409.016893	-273.032745	-175.864410	123.336060
2409.020227	-275.370544	-177.909988	125.498535
2409.023599	-277.416138	-178.786667	128.303909
2409.026889	-278.409729	-181.475159	130.466385
2409.030238	-281.448853	-183.111633	133.622452
2409.033557	-283.962006	-184.748093	135.668030
2409.036898	-285.656921	-186.559906	138.999405
2409.040223	-287.468750	-187.728806	141.863235
2409.043560	-290.800110	-188.839279	144.785507
2409.046895	-293.079498	-191.703094	149.694901
2409.050223	-295.417297	-193.339569	152.850952
2409.053558	-296.936890	-195.092926	155.831680
2409.056895	-300.385162	-198.190536	160.156616
2409.060222	-303.482758	-199.476334	163.838684
2409.063559	-305.177673	-202.340149	168.397415
2409.066917	-308.216827	-203.859726	172.137924
2409.070226	-310.203979	-206.898880	176.346008
2409.073555	-314.879608	-209.119812	180.554062
2409.076883	-316.983643	-211.282288	185.931030
2409.080226	-320.022797	-213.503220	190.314423
2409.083553	-320.899475	-216.308594	194.814713
2409.086886	-324.464661	-218.938614	200.776169
2409.090222	-329.490936	-220.282867	205.159561
2409.093551	-331.770325	-224.374039	211.004074
2409.096886	-334.108124	-225.250732	215.679703
2409.100214	-337.848633	-229.692581	220.530685
2409.104862	-342.641174	-235.069550	233.330215
2409.107741	-346.089447	-237.524261	238.531845
2409.111131	-348.777924	-239.978958	244.610153
2409.114478	-352.050842	-243.953232	250.162460
2409.117811	-355.148468	-245.706619	256.474579
2409.121138	-358.129181	-247.985962	261.793121
2409.124406	-360.759216	-251.551132	269.215668
2409.127314	-364.850372	-254.765640	276.462891
2409.130643	-365.727081	-256.986572	282.541199
2409.133997	-369.935120	-260.551727	290.665131
2409.137308	-372.974304	-263.181763	298.204559
2409.140640	-376.364136	-265.753357	305.802460
2409.143971	-378.701935	-268.792511	313.634125
2409.146886	-381.916443	-271.831696	321.933380
2409.150220	-385.306274	-275.338409	329.940399
2409.153569	-389.046753	-278.026886	339.350098
2409.156881	-391.501465	-280.540039	348.584473
2409.160212	-394.365295	-284.514343	357.292847
2409.163556	-399.333130	-287.553497	367.812958
2409.166880	-403.132111	-289.891327	378.976074
2409.170214	-404.651703	-293.164246	388.794861
2409.173541	-408.333740	-296.320282	400.542419
2409.176878	-411.372894	-299.008789	411.705444
2409.180210	-415.580933	-302.515503	425.615448
2409.183544	-416.866730	-305.788452	436.310974
2409.186880	-420.431885	-309.119812	448.993591
2409.190218	-422.828186	-312.626556	462.143829
2409.193544	-426.159576	-314.438354	476.346039
2409.196908	-427.445374	-318.821777	489.496246
2409.200210	-430.075409	-321.627136	502.880219
2409.203539	-432.237854	-323.555817	517.023987
2409.206878	-433.348328	-327.237885	531.869080
2409.210212	-435.393921	-330.277039	547.123291
2409.213539	-439.134460	-332.030426	559.513733
2409.216875	-438.140869	-335.303345	575.703064
2409.220210	-438.725342	-338.576294	591.541809
2409.223542	-439.543518	-340.095856	607.322021
2409.226893	-439.952667	-344.128571	622.868469
2409.230209	-441.004700	-345.823486	637.947388
2409.233549	-440.478668	-348.921112	653.844543
2409.236875	-439.251343	-350.440704	670.968994
2409.240208	-438.491547	-352.486267	686.573914
2409.244838	-436.855072	-355.759216	719.887756
2409.248169	-435.043243	-356.519012	738.239624
2409.251080	-432.413208	-358.973724	753.786072
2409.254417	-429.958527	-360.259521	772.196350
2409.257849	-429.081818	-360.142609	788.035095
2409.261157	-425.925781	-360.551727	805.510193
2409.264395	-423.120392	-362.655792	824.212708
2409.267290	-418.853912	-361.486877	840.986511
2409.270666	-414.061340	-361.311523	854.838074
2409.273955	-409.151978	-360.668640	876.696655
2409.277294	-405.937469	-359.616608	893.178223
2409.280202	-400.852722	-360.259521	911.237854
2409.283532	-392.962585	-357.454132	928.596069
2409.286867	-386.825836	-355.993011	947.883118
2409.290198	-381.331970	-353.772064	965.533569
2409.293534	-374.026306	-350.499115	982.950317
2409.296864	-365.668640	-348.219788	1003.172363
2409.300222	-358.070740	-344.303955	1019.595459
2409.303529	-348.310364	-341.673889	1036.018677
2409.306867	-339.134430	-337.816498	1054.370605
2409.310199	-329.549377	-331.738190	1071.553467
2409.313559	-318.152557	-327.822357	1086.807739
2409.316867	-306.755707	-323.146698	1103.640015
2409.320193	-294.131531	-317.185272	1120.939819
2409.323530	-283.260681	-312.158997	1134.440674
2409.326864	-269.759796	-305.613098	1149.110474
2409.330198	-255.791351	-297.781433	1161.384033
2409.333527	-241.764465	-292.112244	1177.222656
2409.336865	-227.503784	-285.040344	1188.385742
2409.340195	-212.658691	-277.150238	1198.905884
2409.343552	-197.930450	-269.552307	1208.023315
2409.346868	-182.267090	-261.253052	1220.296875
2409.350198	-165.376404	-254.122742	1227.602539
2409.353529	-148.602570	-245.648148	1236.310913
2409.356874	-131.887207	-236.706024	1240.986572
2409.360190	-114.470482	-228.348328	1250.220947
2409.363527	-98.222679	-218.938614	1256.006958
2409.367796	-62.980125	-201.755692	1266.468750
2409.371138	-45.914085	-191.936874	1265.533569
2409.374448	-27.386909	-183.111633	1271.144409
2409.377706	-10.087082	-173.234360	1271.904175
2409.381052	7.212742	-164.292221	1271.904175
2409.384374	24.687902	-154.414963	1270.209229
2409.387321	42.163063	-145.706604	1271.202881
2409.390617	58.936882	-134.543533	1265.299805
2409.393957	76.295151	-124.257156	1264.130859
2409.397305	93.536530	-115.081238	1260.565674
2409.400644	109.959679	-104.268845	1254.195190
2409.403520	127.668617	-94.274689	1245.662231
2409.406859	143.624191	-83.696083	1240.928101
2409.410228	159.872009	-73.468147	1234.499146
2409.413545	175.827576	-62.889534	1225.206299
2409.416850	192.075378	-53.012276	1216.556396
2409.420190	207.738739	-42.316772	1210.068970
2409.423516	222.466980	-31.913500	1196.568115
2409.426857	238.422577	-22.094681	1185.288086
2409.430182	252.917023	-10.990065	1172.488525
2409.433517	266.008759	-1.288136	1162.319092
2409.436853	280.561676	8.589130	1147.473999
2409.440184	294.471649	18.875513	1131.401489
2409.443518	307.446533	28.518995	1120.238525
2409.446851	320.888947	38.396263	1107.205078
2409.450179	332.753357	46.870834	1089.963745
2409.453522	344.617767	55.286964	1072.079468
2409.456875	356.365265	64.287552	1059.046143
2409.460182	365.658081	72.762131	1042.681519
2409.463514	376.821167	80.535362	1024.271118
2409.466853	387.165985	87.841026	1006.620605
2409.470184	395.757446	94.737579	989.379272
2409.473514	404.582703	101.575691	971.378052
2409.476846	411.829926	108.822906	951.448242
2409.480179	420.479828	114.375229	934.148499
2409.483510	427.493286	120.628876	919.069580
2409.486868	434.682037	126.414963	901.594299
2409.490179	441.111053	131.616592	879.268250
2409.493516	447.072449	136.350677	866.760864
2409.496843	450.228516	141.143188	847.824646
2409.500185	454.319672	145.701920	829.063660
2409.504808	462.852722	153.241379	797.970764
2409.507716	466.359436	157.040329	779.852722
2409.511057	467.294556	159.611923	765.358215
2409.514436	471.794830	163.469315	749.227295
2409.517798	472.554626	166.040909	733.973083
2409.521125	472.905304	169.021622	716.381042
2409.523941	474.950897	171.885452	701.886597
2409.527269	476.528931	174.047928	687.392151
2409.530634	475.067810	176.327286	671.962585
2409.533927	478.223846	178.665100	656.182312
2409.537263	476.704254	180.886032	642.330750
2409.540601	477.113403	182.405609	628.946777
2409.543512	475.827606	184.684982	614.276978
2409.546843	474.600220	186.321442	600.016357
2409.550170	474.132690	187.899490	585.171265
2409.553506	472.320831	188.600815	572.663879
2409.556839	471.327301	190.471069	558.870789
2409.560196	469.515472	191.815323	545.428406
2409.563500	467.878998	192.867340	531.401489
2409.566844	465.482758	194.562241	518.309753
2409.570179	463.670959	195.263596	504.691986
2409.573522	462.268250	195.146698	493.119843
2409.576838	458.819946	195.672714	480.495636
2409.580167	456.599060	195.964920	467.988312
2409.583504	454.787262	195.497360	455.773285
2409.586846	451.748077	196.081818	444.551758
2409.590168	447.890717	196.724716	432.511993
2409.593501	444.150208	196.374054	421.524292
2409.596838	442.104614	196.490952	408.607819
2409.600165	438.130341	195.555817	398.146118
