time (s)	magX	magY	magZ
3263.296980	-54.604321	-337.640564	400.703125
3263.300319	-55.481007	-338.692566	410.463440
3263.303672	-56.065456	-339.393921	421.334290
3263.306980	-57.059032	-340.036835	430.977783
3263.310316	-57.818821	-340.270599	441.497955
3263.313645	-58.987720	-341.205719	451.901215
3263.316985	-60.156628	-341.147278	462.246033
3263.320311	-61.676212	-341.381073	473.993530
3263.323646	-63.371128	-340.913513	484.922852
3263.327907	-67.170074	-339.627686	508.125671
3263.331241	-68.280533	-338.692566	520.749878
3263.334495	-71.261246	-337.640564	531.620728
3263.337829	-72.780823	-336.296326	544.244873
3263.341171	-74.884872	-333.783173	556.226196
3263.344520	-77.281113	-330.977814	568.791931
3263.347848	-79.209808	-328.406189	580.656372
3263.350778	-81.489182	-325.600830	593.222107
3263.354088	-83.008759	-321.568085	604.151367
3263.357427	-86.223251	-318.645813	616.833984
3263.360791	-88.502640	-313.619537	627.295715
3263.364065	-91.015778	-308.885468	638.341919
3263.366972	-91.717117	-304.502045	649.504944
3263.370310	-94.580948	-299.300415	659.031555
3263.373656	-96.568085	-294.040314	669.084106
3263.376978	-98.146118	-288.078918	678.844543
3263.380303	-99.665695	-282.351257	689.773804
3263.383645	-101.360611	-276.798950	699.066589
3263.386975	-101.945068	-270.194611	708.300964
3263.390301	-103.172409	-263.882507	716.600220
3263.393641	-104.107529	-256.810638	725.367004
3263.396972	-105.042664	-250.323212	734.835144
3263.400308	-105.744003	-243.192871	742.082397
3263.403658	-105.919342	-235.770325	750.206360
3263.406970	-106.270004	-228.172424	758.505493
3263.410301	-106.620682	-219.405609	764.876038
3263.413637	-106.854477	-211.632385	772.123291
3263.416969	-106.620682	-202.807129	779.253662
3263.420326	-107.146683	-194.157227	783.870850
3263.423649	-106.912903	-184.805969	789.949219
3263.426975	-106.971359	-175.279373	795.033875
3263.430298	-107.029800	-164.876099	798.598999
3263.433639	-107.088257	-154.297485	803.274719
3263.436968	-107.146683	-144.186432	806.956726
3263.440297	-107.555817	-132.380478	809.411499
3263.443634	-107.614258	-120.925186	812.333740
3263.446998	-108.023376	-109.236122	813.502686
3263.450300	-109.133835	-96.728813	816.307983
3263.454985	-109.776733	-71.947983	816.541809
3263.457861	-110.361191	-58.973114	817.009338
3263.461244	-110.945633	-45.530685	817.126221
3263.464549	-111.646988	-31.796024	814.905334
3263.467883	-112.465225	-18.412039	813.093506
3263.471171	-113.108124	-4.385154	809.762146
3263.474059	-113.692581	8.531269	807.073669
3263.477386	-114.627701	22.558153	803.333130
3263.480731	-115.329041	36.059029	797.956116
3263.484065	-115.738159	49.559914	792.929871
3263.487387	-116.556396	62.067215	787.026855
3263.490328	-116.381058	75.392754	781.591492
3263.493626	-116.264175	87.958504	773.642883
3263.496960	-116.497955	100.290482	766.804749
3263.500293	-116.556396	112.330223	758.388672
3263.503629	-116.322601	124.077736	751.492065
3263.506961	-115.504379	135.533020	743.601929
3263.510339	-114.627701	145.936295	736.004089
3263.513630	-114.043243	156.924011	728.230896
3263.516959	-113.166565	166.684402	720.048462
3263.520339	-111.822327	176.444763	711.515503
3263.523623	-110.361191	185.796021	702.924011
3263.526955	-109.309174	194.445938	693.689636
3263.530294	-107.906479	203.446533	686.091797
3263.533659	-106.562241	211.511993	677.675659
3263.536957	-104.224426	219.460556	669.259521
3263.540286	-102.587952	226.532425	660.551147
3263.543626	-101.126831	233.779663	651.959656
3263.546964	-99.198120	240.500885	641.965515
3263.550290	-97.503204	247.455872	633.081848
3263.553629	-95.632965	253.767975	623.555237
3263.556959	-93.938049	260.313843	614.496216
3263.560294	-91.717117	265.690826	603.917542
3263.563649	-89.963760	271.301575	594.215637
3263.566956	-88.327286	276.912323	583.929260
3263.570289	-86.807709	282.230835	573.701355
3263.573624	-85.346573	287.432495	563.414978
3263.577001	-83.710114	291.289886	552.368774
3263.581560	-81.196960	299.589142	530.218018
3263.584472	-79.911163	303.563385	520.983643
3263.587815	-78.683807	306.251892	509.177673
3263.591154	-77.514893	310.109314	498.540588
3263.594495	-76.755112	312.914673	487.143738
3263.597906	-75.761551	315.486267	475.863831
3263.600791	-74.767975	317.765625	464.817627
3263.604120	-73.949738	320.161896	453.596130
3263.607409	-72.839264	321.038574	443.134430
3263.610715	-71.904144	322.675018	432.205109
3263.614050	-71.670364	323.025726	422.327881
3263.617379	-70.326126	324.662170	410.171234
3263.620286	-69.507889	324.954407	399.826385
3263.623615	-68.338989	324.662170	391.001129
3263.626948	-67.520752	324.779083	380.773224
3263.630287	-66.527176	325.129730	371.071289
3263.633614	-65.708939	324.253052	362.772034
3263.636949	-64.481583	323.434814	353.362335
3263.640283	-63.020458	323.259491	344.829346
3263.643638	-62.143772	321.856812	335.828735
3263.646951	-61.208645	321.389252	328.932190
3263.650284	-59.922848	319.869659	322.152527
3263.653616	-58.637051	318.408539	314.203979
3263.656962	-57.351254	317.239624	307.365845
3263.660278	-56.416126	315.895386	300.527740
3263.663614	-54.838100	314.200470	293.923431
3263.666949	-53.552303	313.674438	287.786652
3263.670282	-52.383396	311.628845	281.533020
3263.673613	-51.740505	309.524841	275.571594
3263.676948	-50.104031	308.297485	269.551727
3263.680280	-48.467564	306.544128	264.759186
3263.683609	-47.181767	304.556976	258.622437
3263.686941	-45.954411	302.686737	253.245453
3263.690276	-44.902393	300.407349	247.400909
3263.693609	-44.201054	298.829346	241.790161
3263.696941	-42.798367	296.900635	236.296295
3263.700276	-41.161892	294.913513	230.919312
3263.703606	-40.635883	292.458801	225.659271
3263.706942	-39.408535	291.114532	220.282288
3263.710274	-38.765629	288.426056	215.080658
3263.714533	-37.538284	284.101105	205.320282
3263.717873	-36.953823	281.003479	200.177094
3263.721200	-36.194038	278.607239	194.975433
3263.724459	-35.025131	276.561646	190.650513
3263.727785	-35.492695	273.931610	184.689056
3263.731172	-35.083572	271.769135	180.364105
3263.734475	-33.914665	268.788422	176.039154
3263.737365	-33.388660	265.983063	171.012848
3263.740730	-33.213322	263.762115	166.571014
3263.744056	-32.687317	260.956726	162.421387
3263.747414	-32.862652	259.028046	157.979523
3263.750700	-32.511978	256.164246	153.596130
3263.753607	-31.752193	253.534180	149.680298
3263.756933	-31.459965	250.904144	146.173584
3263.760303	-31.401520	248.975433	142.549957
3263.763598	-31.050850	246.286957	139.160156
3263.766931	-30.758617	244.299805	135.770294
3263.770273	-29.998833	241.845123	133.315613
3263.773610	-29.355930	239.507324	130.393341
3263.776937	-28.771477	237.403275	127.880196
3263.780266	-28.888367	236.117477	125.250145
3263.783604	-28.303913	233.955002	123.204567
3263.786931	-27.368790	231.500290	120.866753
3263.790265	-26.959667	230.097595	117.476906
3263.793599	-25.907654	228.519577	115.898888
3263.796938	-26.024544	226.415527	113.970192
3263.800266	-25.030975	225.480408	111.457054
3263.803614	-24.271183	223.668610	110.229698
3263.806926	-24.095852	222.090591	108.534767
3263.810261	-23.511395	221.506134	106.547646
3263.813602	-23.160721	219.518982	104.794273
3263.816942	-22.459377	218.116302	103.566917
3263.820261	-22.400932	216.655182	102.339561
3263.823601	-21.524254	214.960266	100.936882
3263.826926	-20.764465	213.674438	99.358849
3263.830266	-21.115135	212.505554	97.780830
3263.833596	-20.238457	210.985962	97.079491
3263.836928	-20.238457	209.641708	94.917015
3263.840265	-19.420219	208.589722	93.748100
3263.843590	-19.011105	206.777893	92.111626
3263.847813	-18.192867	204.264755	89.540031
3263.851219	-18.134422	202.628265	87.552895
3263.854508	-17.842197	201.050247	85.799538
3263.857837	-17.783752	199.647568	84.279945
3263.861100	-17.666862	198.127975	82.585030
3263.864013	-17.491524	197.251312	81.883690
3263.867355	-17.549969	195.614838	79.604332
3263.870688	-17.608418	194.445938	78.260078
3263.874012	-17.257744	192.517227	76.565163
3263.876953	-17.199299	191.289871	75.337807
3263.880254	-17.082409	190.120972	73.175331
3263.883592	-16.673290	189.302750	72.532433
3263.886925	-16.614845	187.374039	71.363533
3263.890262	-17.199299	186.322037	70.253075
3263.893592	-16.322617	185.445343	69.727058
3263.896922	-16.497955	184.334900	68.675056
3263.900267	-16.673290	183.224426	67.681480
3263.903585	-15.738163	182.756866	67.447693
3263.906918	-16.264172	181.763290	66.454124
3263.910259	-16.147282	181.178833	65.402100
3263.913587	-16.497955	180.243713	64.759201
3263.916921	-15.270603	179.834595	63.999413
3263.920293	-15.212158	179.834595	63.824081
3263.923585	-14.861485	179.191696	63.414963
3263.926917	-15.036819	178.373459	63.824081
3263.930250	-14.803040	178.022781	63.590294
3263.933596	-13.634129	178.022781	62.772072
3263.936920	-13.984802	178.022781	62.479836
3263.940249	-13.283459	177.438339	62.596725
3263.943586	-13.517239	177.146103	62.713623
3263.946913	-13.166569	177.438339	62.479836
3263.950247	-12.406776	176.970779	61.836945
3263.953588	-12.231441	176.503204	62.479836
3263.956919	-12.231441	176.503204	62.012276
3263.960253	-11.705433	176.444763	62.596725
3263.964524	-11.120979	176.094101	62.070724
3263.967832	-11.296318	175.918747	62.538284
3263.971096	-10.945644	175.568085	62.246056
3263.974436	-10.536526	175.509644	62.362946
3263.977798	-10.419636	176.035645	62.304504
3263.981144	-10.887199	175.977203	61.661598
3263.984000	-10.711864	175.217407	61.953827
3263.987369	-10.244301	175.100525	60.901817
3263.990697	-10.770309	174.866745	60.901817
3263.994029	-10.828754	174.399185	61.836945
3263.997338	-10.478081	174.749847	60.434258
3264.000283	-10.478081	174.399185	60.901817
3264.003580	-9.952072	174.048508	59.616013
3264.006931	-10.068966	174.165405	59.557564
3264.010247	-10.536526	173.814728	59.440681
3264.013576	-10.185856	173.990067	58.622444
3264.016915	-10.244301	173.990067	58.271774
3264.020243	-10.185856	174.282288	58.447105
3264.023575	-10.770309	174.457626	58.622444
3264.026906	-10.653419	174.457626	58.505554
3264.030241	-9.893627	174.691406	57.979546
3264.033574	-9.952072	174.574509	58.271774
3264.036903	-10.127411	174.925186	59.616013
3264.040244	-10.302746	175.684967	59.499130
3264.043598	-9.601402	176.327881	60.375809
3264.046910	-9.776737	177.029221	61.427818
3264.050246	-9.659847	177.029221	60.784920
3264.053575	-10.185856	177.555222	62.421394
3264.056908	-9.542957	178.256561	63.239632
3264.060259	-9.835182	179.367035	63.531853
3264.063575	-8.666275	180.535950	64.350090
3264.066906	-8.490940	181.587952	65.402100
3264.070244	-8.607830	182.347748	65.869659
3264.073572	-7.964931	183.341309	66.687904
3264.076905	-8.490940	184.218002	67.798363
3264.080237	-7.672707	185.445343	68.967262
3264.083569	-7.380478	186.964935	70.428398
3264.086939	-7.263588	187.607834	70.603737
3264.090241	-6.971363	188.601395	72.357109
3264.093576	-6.328465	189.887177	72.649330
3264.098251	-6.912918	191.699005	75.805382
3264.101111	-6.211571	192.809464	76.565163
3264.104492	-5.977791	194.212143	77.792519
3264.107852	-5.802456	195.614838	78.318535
3264.111152	-5.627117	196.140854	80.305672
3264.114418	-5.685566	197.192856	80.714790
3264.117335	-6.094681	198.186432	82.000587
3264.120663	-4.867327	199.530670	82.234367
3264.124006	-5.393335	200.699585	82.994164
3264.127327	-4.691990	201.517822	84.338402
3264.130695	-4.750437	202.745163	85.565758
3264.133980	-4.925772	204.264755	86.150200
3264.136902	-5.510229	205.082977	87.026894
3264.140229	-5.510229	206.836334	87.903572
3264.143569	-5.334888	207.654587	89.832268
3264.146893	-5.042664	208.940384	90.650490
3264.150238	-4.925772	210.693741	91.702522
3264.153573	-5.101109	211.511993	93.397423
3264.156899	-4.867327	212.680878	94.624779
3264.160231	-5.276443	214.551132	96.085915
3264.163565	-4.925772	216.012253	97.430153
3264.166891	-5.159554	217.531845	99.943306
3264.170232	-4.925772	219.109863	101.638222
3264.173584	-4.691990	220.921677	102.924019
3264.176893	-4.691990	222.850372	105.203392
3264.180226	-4.575100	224.077713	107.599648
3264.183564	-3.873756	226.415527	110.580360
3264.186897	-3.581530	228.227341	112.684395
3264.190228	-3.172413	230.682053	114.788429
3264.193564	-3.055521	233.078308	117.710701
3264.196894	-2.704849	235.123886	120.691399
3264.200229	-1.769724	237.344833	124.022789
3264.203556	-1.535942	239.448853	127.821739
3264.206886	-1.302162	241.728241	130.334900
3264.210221	-0.191700	244.066040	133.783173
3264.213561	0.158972	246.754517	136.530090
3264.216904	1.035652	249.033905	140.445953
3264.220222	1.035652	251.488617	144.829346
3264.223617	1.678553	253.884857	148.862061
3264.226898	2.204559	256.222656	152.310333
3264.230220	2.555233	258.794281	155.524841
3264.233557	3.373466	261.248962	159.616028
3264.238183	4.191702	265.281708	167.389252
3264.241100	5.009935	267.619507	171.188171
3264.244420	4.893045	269.665100	174.987152
3264.247774	5.360609	272.412018	178.961426
3264.251184	5.828171	274.457611	182.818817
3264.254472	6.646408	276.912323	186.383972
3264.257391	6.587961	279.191711	189.598480
3264.260683	7.464642	281.178833	193.981873
3264.263975	6.880188	283.575104	197.780823
3264.267319	7.523087	285.796021	202.047333
3264.270223	7.698423	288.601379	206.372284
3264.273554	7.756868	289.653412	211.164795
3264.276885	8.516659	292.341888	215.022186
3264.280221	8.575104	294.095276	219.756287
3264.283547	8.633549	296.549957	223.905884
3264.286886	9.159557	299.296906	229.691986
3264.290218	9.334892	300.290466	235.185852
3264.293547	9.977791	303.037415	241.147278
3264.296887	9.860901	305.375214	246.933350
3264.300219	10.679136	307.128571	253.479248
3264.303567	10.854473	309.174164	258.505554
3264.306885	11.906488	311.395081	265.518982
3264.310211	12.257161	313.615997	272.123291
3264.313551	12.783169	315.720062	280.071899
3264.316888	13.309176	317.473419	286.559296
3264.320220	14.653420	319.694336	295.150787
3264.323549	15.471655	321.155457	302.690247
3264.326879	16.640562	322.967255	311.749268
3264.330219	17.984806	324.019287	320.223846
3264.333544	18.978376	325.421967	328.698425
3264.336876	20.439510	326.357086	337.874329
3264.340209	21.374636	326.941559	346.816467
3264.343546	22.660433	328.285797	355.407928
3264.346923	24.180012	328.402679	364.934540
3264.350209	25.173584	329.045563	373.993561
3264.353547	27.394506	329.279358	383.403259
3264.356877	29.206314	329.863831	393.222107
3264.360210	30.141439	329.805359	403.450012
3264.363543	31.894798	328.928711	412.976624
3264.367743	34.115723	328.052002	433.081818
3264.371140	36.102863	326.649323	442.374634
3264.374473	37.096436	325.831085	451.725891
3264.377739	38.732906	324.369934	462.070740
3264.381049	39.434250	323.317932	471.655762
3264.383971	40.544712	321.213898	481.474548
3264.387298	41.888954	319.635895	490.241333
3264.390671	42.999416	318.233185	499.768005
3264.393968	43.408535	315.486267	509.995911
3264.397324	44.577438	312.739319	519.873169
3264.400207	44.635887	310.109314	529.808899
3264.403534	45.395676	307.187012	539.510803
3264.406875	46.506138	303.797180	549.271179
3264.410203	47.265930	300.056702	559.382202
3264.413535	47.791939	296.023956	569.201050
3264.416867	48.668617	291.757446	579.370544
3264.420203	49.311516	287.783173	589.423157
3264.423538	49.954414	281.646393	599.592651
3264.426868	50.363533	276.444763	609.762085
3264.430202	51.415550	271.009338	620.866760
3264.433545	52.233784	264.463470	631.153137
3264.436871	53.110462	257.391602	641.731750
3264.440202	54.220924	250.319702	651.725891
3264.443531	55.097603	243.364685	662.421387
3264.446863	56.909409	234.948563	673.000000
3264.450203	57.376972	226.707764	683.578613
3264.453531	58.954998	217.824066	693.981873
3264.456870	60.299244	208.765045	705.144958
3264.460197	62.227940	198.946228	714.145508
3264.463538	63.572182	188.718292	724.315063
3264.466871	64.682648	177.847458	733.374023
3264.470200	65.968445	165.866150	742.199280
3264.473531	67.663361	155.112213	751.199890
3264.476860	68.890709	143.247803	759.616028
3264.480199	70.877853	131.091171	766.746277
3264.483535	72.338989	119.343666	774.168945
3264.486870	73.858566	107.420807	780.656311
3264.490198	75.027466	94.095268	787.085327
3264.493527	76.079483	81.880188	807.716553
3264.498168	78.125076	57.508476	801.696655
3264.501086	79.177094	45.176506	806.138489
3264.504405	80.462891	32.493866	809.995911
3264.507738	80.696671	20.278784	813.385742
3264.511151	80.638229	8.239042	816.541809
3264.514449	81.164230	-3.450028	817.418457
3264.517354	81.105789	-14.203974	818.996521
3264.520656	81.164230	-27.120396	821.451172
3264.523949	80.287552	-38.283463	821.860291
3264.527285	80.521332	-50.030975	821.275879
3264.530617	80.579773	-61.252487	821.918762
3264.533945	79.410873	-72.006432	821.334351
3264.536857	78.066635	-83.403267	820.106934
3264.540191	77.599068	-93.923439	818.002930
3264.543519	76.839279	-104.852715	815.665100
3264.546861	75.962593	-114.846870	813.619507
3264.550197	75.144363	-125.600815	810.580322
3264.553520	73.917007	-136.471649	806.781433
3264.556856	73.332550	-147.634720	803.040955
3264.560191	71.871422	-157.511993	798.248352
3264.563533	71.053192	-166.921692	793.514343
3264.566871	69.825836	-177.032745	787.845093
3264.570186	68.715378	-187.202225	781.123901
3264.573518	67.897141	-196.962601	773.584412
3264.576852	66.903564	-206.664536	766.629456
3264.580188	65.968445	-216.132675	759.206909
3264.583525	65.559326	-225.367050	751.082947
3264.586851	64.507309	-233.549393	741.848633
3264.590186	63.513737	-242.491531	733.198730
3264.593518	62.461720	-250.206314	723.204529
3264.596858	62.169491	-258.096436	712.275269
3264.600186	61.526592	-265.168335	702.047302
3264.603520	60.766804	-272.473999	691.468750
3264.606883	60.007015	-278.844543	680.130310
3264.610186	59.247227	-285.390442	668.967285
3264.613523	58.896553	-290.182922	657.979553
3264.616850	58.370544	-295.443024	646.991760
3264.620182	57.201637	-300.293976	635.828735
3264.623518	55.915840	-304.618927	623.379883
3264.626847	55.214493	-309.294556	612.509094
3264.630183	54.571594	-312.742828	600.878418
3264.634436	52.642899	-319.464081	577.208069
3264.637736	51.415550	-321.860321	566.921692
3264.641026	50.538864	-324.139709	556.050842
3264.644355	49.837524	-325.834625	544.653992
3264.647750	48.376389	-327.529541	534.835144
3264.651074	47.558155	-329.516663	524.490356
3264.653966	45.512566	-330.393341	515.372864
3264.657295	43.642315	-331.562225	505.086487
3264.660641	42.765636	-332.614258	494.917053
3264.663938	41.713619	-332.322021	486.383972
3264.667311	40.369377	-333.081818	476.974243
3264.670179	38.382233	-333.315613	467.389221
3264.673510	37.154881	-333.841614	457.745728
3264.676849	35.752193	-333.666290	448.920502
3264.680211	34.641731	-333.140289	438.458801
3264.683511	33.005260	-332.614258	431.211578
3264.686839	31.894798	-332.322021	421.275879
3264.690184	31.018120	-331.737610	411.924622
3264.693507	29.440094	-330.919342	401.813568
3264.696847	28.212742	-329.691986	393.514313
3264.700177	27.336061	-328.990662	384.805939
3264.703510	26.167154	-327.938629	375.396271
3264.706845	23.654005	-326.535950	366.161896
3264.710199	22.718880	-325.367065	358.096436
3264.713507	21.959089	-323.964355	349.446503
3264.716837	21.316191	-322.269440	340.971954
3264.720223	20.848627	-320.749847	332.205139
3264.723519	20.088837	-318.879608	323.379883
3264.726844	19.913502	-317.535370	315.080658
3264.730174	18.686150	-314.671539	306.839874
3264.733506	17.692577	-312.567505	298.657501
3264.736837	17.341908	-310.872589	289.656921
3264.740175	16.640562	-308.826996	281.591461
3264.743507	16.348335	-306.372284	275.104034
3264.746838	16.114553	-303.333130	266.804779
3264.750167	15.880773	-301.053772	260.200470
3264.753524	15.413210	-298.540619	252.777893
