crossing time (s)	slope (V/s)	crossing number
1590.387660	39.418646	2462
1591.443730	33.092355	2463
1592.470626	27.094246	2464
1593.535607	20.484424	2465
1594.561320	17.131807	2466
1595.652942	11.504933	2467
1596.667702	9.240114	2468
1597.729397	7.312926	2469
1598.748940	5.716738	2470
1599.830486	4.288347	2471
1600.861168	3.750348	2472
1601.905461	2.870345	2473
1602.936123	1.434106	2474
1604.061831	0.881415	2475
