time (s)	magX	magY	magZ
5359.344025	-112.348328	376.327881	346.348907
5359.347379	-116.147278	378.315002	359.849792
5359.350690	-119.887772	380.419067	373.058441
5359.354026	-123.336060	381.763275	386.851562
5359.357354	-127.310349	383.165985	399.592651
5359.360688	-131.226181	384.276428	413.677948
5359.364025	-134.791351	384.919342	429.282867
5359.367354	-137.830505	385.153137	444.127991
5359.370690	-142.038574	385.737549	458.739319
5359.374016	-144.960846	384.977753	474.519531
5359.377350	-148.292221	384.568695	490.124451
5359.380686	-152.266510	382.815308	505.086487
5359.384021	-155.247223	380.886627	520.632935
5359.387352	-158.286377	378.724152	538.692566
5359.391622	-164.072464	372.236694	572.064880
5359.394906	-166.410294	368.613098	590.007629
5359.398194	-169.332550	363.762115	606.430725
5359.401531	-172.021042	357.566925	624.782593
5359.404881	-175.001755	350.728821	642.608398
5359.408236	-177.514893	343.189362	660.668030
5359.411106	-180.437164	334.597900	678.844543
5359.414470	-182.599640	325.655731	696.085876
5359.417793	-185.989487	315.895386	714.496216
5359.421134	-188.911728	303.914093	732.438904
5359.424447	-191.775574	291.815887	750.089417
5359.427384	-194.639374	279.600800	766.395630
5359.430679	-197.210983	265.281708	783.111084
5359.434020	-199.957901	250.670349	799.300476
5359.437347	-202.821747	234.948563	815.372925
5359.440675	-206.386902	219.402100	830.685608
5359.444015	-209.659851	202.511398	846.465820
5359.447349	-213.049683	185.328461	858.739319
5359.450676	-215.855057	167.619522	872.357056
5359.454008	-219.127991	149.150787	885.098145
5359.457350	-222.284042	130.156052	897.021057
5359.460677	-225.966110	111.219749	907.482788
5359.464010	-228.128586	91.231445	917.126221
5359.467346	-231.109283	71.476913	924.957886
5359.470696	-233.388641	51.488602	931.854492
5359.474008	-235.551117	31.617182	938.108093
5359.477342	-237.070709	11.921099	942.959106
5359.480677	-237.947388	-7.891875	946.991760
5359.484006	-239.233185	-27.763296	950.323181
5359.487339	-239.466980	-47.108707	951.316772
5359.490679	-239.057861	-66.337227	953.187073
5359.494012	-239.642303	-84.922852	953.829895
5359.497342	-238.590302	-102.690239	952.836365
5359.500674	-237.304504	-120.691406	951.082947
5359.504004	-236.077148	-139.043243	950.323181
5359.507339	-234.791321	-156.459976	947.167175
5359.510671	-232.102844	-173.526016	944.537109
5359.514041	-229.940369	-190.007614	939.510803
5359.517338	-227.368790	-206.080078	935.244324
5359.520672	-224.095856	-222.094116	929.282837
5359.525357	-217.725311	-251.492126	914.379272
5359.528273	-213.867905	-264.700775	905.203430
5359.531630	-210.244308	-278.260101	894.624756
5359.534854	-206.153107	-291.351837	882.175903
5359.538213	-201.477493	-303.216248	871.246582
5359.541519	-197.444763	-315.080658	858.973083
5359.544879	-192.886032	-326.594421	845.179993
5359.547757	-188.035065	-337.289886	830.685608
5359.551117	-184.469894	-346.465820	816.132690
5359.554454	-180.320267	-355.349487	800.410889
5359.557816	-176.696671	-364.233215	784.864380
5359.561092	-172.371704	-372.181793	768.324341
5359.564431	-168.514313	-379.253662	750.966125
5359.567333	-164.715363	-385.390442	734.016968
5359.570668	-161.442429	-391.877838	717.243103
5359.574000	-158.929276	-396.962585	699.651062
5359.577332	-155.539444	-401.287567	681.649902
5359.580665	-151.974274	-404.911163	664.291626
5359.584002	-148.993576	-408.593231	647.167114
5359.587336	-146.188187	-410.405029	629.925781
5359.590666	-143.616592	-412.567505	612.684387
5359.594001	-140.577438	-413.561096	594.800110
5359.597329	-137.479843	-414.203979	577.617187
5359.600685	-135.375793	-414.379303	561.778442
5359.603997	-132.102859	-413.794861	545.121521
5359.607333	-129.706604	-413.035065	529.399719
5359.610663	-126.901215	-412.684387	513.970215
5359.614024	-124.329620	-412.333740	498.832886
5359.617328	-121.348907	-410.229675	484.455261
5359.620666	-118.134430	-408.359436	469.493286
5359.623997	-115.270599	-406.313843	455.291077
5359.627326	-112.757446	-405.028076	442.666870
5359.630664	-110.010513	-402.982483	430.042664
5359.633995	-106.854477	-400.177094	416.424896
5359.637325	-104.224426	-397.722382	404.443604
5359.640664	-101.652832	-394.683228	393.163635
5359.644018	-98.672119	-392.111633	381.474548
5359.647328	-95.399170	-389.481598	370.837524
5359.650666	-92.301590	-385.624207	359.908203
5359.653993	-89.203979	-383.578613	349.329620
5359.657324	-85.463470	-379.896545	338.692566
5359.660659	-83.242554	-376.565186	328.873749
5359.663996	-79.852707	-372.532440	319.288727
5359.668674	-74.475739	-365.343658	300.001740
5359.671599	-71.728806	-361.486267	290.475159
5359.674881	-69.098770	-357.921112	280.305664
5359.678171	-66.760956	-354.063721	272.181763
5359.681501	-64.072464	-350.089447	263.648743
5359.684882	-62.085331	-345.998230	255.115723
5359.688211	-60.390415	-341.381073	246.641144
5359.691103	-57.585033	-337.874359	238.166565
5359.694438	-55.948566	-333.783173	230.802460
5359.697828	-54.136761	-330.159546	222.503204
5359.701079	-53.084743	-326.360626	215.255981
5359.704409	-51.915836	-320.749847	207.950317
5359.707746	-50.746929	-317.769165	200.761536
5359.710649	-49.110462	-313.853333	193.981873
5359.713987	-47.941555	-309.469910	187.962006
5359.717342	-47.006428	-305.203400	181.649933
5359.720649	-45.954411	-301.112244	175.630035
5359.723985	-44.668613	-297.722382	171.071320
5359.727317	-43.850376	-294.040314	165.518982
5359.730653	-42.973698	-289.949158	160.317383
5359.733986	-42.097019	-287.026886	155.115723
5359.737315	-41.629459	-283.461731	150.966095
5359.740650	-41.395679	-280.247223	146.933350
5359.743988	-40.343662	-277.032745	143.251312
5359.747340	-39.466976	-273.876709	138.517242
5359.750679	-38.414959	-270.486847	135.068970
5359.753986	-38.122738	-267.623016	130.860901
5359.757313	-36.661602	-264.817627	128.873749
5359.760658	-36.369370	-262.012268	125.367043
5359.763980	-34.966682	-259.674438	121.977211
5359.767315	-34.908241	-256.869080	117.944481
5359.770648	-33.680885	-254.765060	115.723564
5359.773977	-32.511978	-252.135025	113.736412
5359.777315	-31.635303	-249.563416	110.931038
5359.780649	-31.167740	-246.874939	108.125664
5359.783977	-30.407948	-245.764481	106.196968
5359.787308	-29.239040	-243.251328	103.391579
5359.790667	-27.661015	-240.796616	100.995323
5359.794915	-26.433662	-236.296326	97.021034
5359.798233	-25.615429	-234.835175	94.683220
5359.801574	-25.089420	-231.971359	92.696083
5359.804855	-23.862068	-229.867340	91.176506
5359.808156	-22.926941	-228.230865	88.721794
5359.811486	-21.874924	-226.009949	86.968437
5359.814403	-20.939800	-223.672134	84.455284
5359.817735	-20.589127	-222.152542	83.403267
5359.821084	-20.063118	-219.639404	81.474571
5359.824421	-19.478664	-217.944489	78.727654
5359.827765	-18.894215	-216.015793	76.740501
5359.830680	-18.601986	-214.554657	74.578026
5359.833972	-18.134422	-212.333740	73.116890
5359.837306	-17.959087	-210.989487	71.714211
5359.840639	-17.433079	-208.768570	69.843956
5359.843970	-17.666862	-207.482758	68.382820
5359.847338	-17.316189	-205.787842	66.629456
5359.850637	-16.907070	-203.976044	65.518997
5359.853973	-16.673290	-202.398026	63.356514
5359.857304	-16.497955	-201.930450	63.122734
5359.860649	-16.731735	-200.527771	62.187607
5359.863974	-17.140854	-198.715958	60.609589
5359.867302	-15.679718	-197.430161	59.674461
5359.870642	-16.205727	-195.969025	58.739334
5359.873976	-16.264172	-195.267685	58.330208
5359.877297	-15.971947	-194.215668	57.278198
5359.880633	-16.147282	-193.864990	56.518410
5359.883971	-16.088837	-192.754532	55.817062
5359.887297	-15.504383	-191.877853	55.583282
5359.890639	-15.679718	-191.234955	54.765053
5359.893974	-15.913502	-190.299820	54.589706
5359.897301	-15.329048	-190.767395	53.946815
5359.900635	-15.562828	-190.182938	53.596146
5359.903970	-14.978374	-189.189362	53.596146
5359.907303	-14.569260	-189.423157	53.303917
5359.910637	-14.218582	-188.955582	53.011688
5359.913965	-13.809467	-188.546478	52.836357
5359.917297	-13.458794	-187.962006	52.485680
5359.920651	-13.400349	-187.903564	52.544128
5359.923961	-12.114552	-187.845123	52.427238
5359.928642	-11.588543	-187.143784	51.901230
5359.931505	-11.062534	-187.026886	51.901230
5359.934913	-11.120979	-186.267090	52.076561
5359.938254	-10.244301	-186.910004	51.842781
5359.941485	-10.127411	-186.325546	51.199883
5359.944820	-9.835182	-185.916428	51.375221
5359.948140	-9.542957	-186.150208	51.492119
5359.951052	-8.841614	-186.091766	51.550552
5359.954388	-8.900059	-185.565750	51.316772
5359.957751	-8.900059	-185.507309	51.258331
5359.961078	-9.133839	-185.916428	50.264763
5359.964416	-7.672707	-185.565750	50.381645
5359.967742	-8.374050	-185.741089	49.504967
5359.970626	-7.906487	-185.215088	50.673874
5359.973959	-8.666275	-186.091766	50.206314
5359.977293	-8.724720	-185.974884	49.914085
5359.980629	-8.607830	-186.150208	50.440094
5359.983957	-8.315605	-186.325546	50.089424
5359.987289	-8.666275	-186.559326	50.790771
5359.990629	-9.075394	-187.260666	50.323212
5359.993961	-8.607830	-187.786682	51.258331
5359.997292	-9.133839	-188.429581	51.433670
5360.000658	-9.542957	-188.604904	51.959679
5360.003958	-9.542957	-189.481598	52.076561
5360.007295	-9.718292	-190.241394	52.602577
5360.010624	-9.952072	-191.468735	53.420799
5360.013957	-10.302746	-192.345428	54.239044
5360.017289	-10.594971	-193.105209	55.524834
5360.020626	-10.068966	-194.040329	55.407951
5360.023949	-10.361191	-195.209229	56.284630
5360.027284	-10.361191	-197.079483	57.628868
5360.030635	-10.302746	-198.014618	59.265350
5360.033956	-10.302746	-199.592651	60.843369
5360.037288	-9.835182	-200.703094	62.187607
5360.040618	-9.659847	-202.105789	63.005852
5360.043986	-9.835182	-203.391586	64.233192
5360.047288	-9.659847	-204.735840	65.577446
5360.050630	-9.016949	-206.021622	66.863235
5360.053952	-8.374050	-207.424316	68.616600
5360.057289	-8.257160	-208.476334	69.843956
5360.060619	-8.257160	-210.931046	70.486855
5360.063953	-7.731152	-212.216843	72.298653
5360.067284	-7.731152	-213.853302	74.461128
5360.071989	-6.796024	-217.009354	77.032722
5360.074877	-6.737579	-218.353607	78.493874
5360.078259	-5.802456	-219.990067	80.071892
5360.081489	-5.977791	-221.918762	81.591469
5360.084804	-5.568674	-223.555237	83.111046
5360.087737	-5.217999	-225.367050	83.870842
5360.091041	-5.334888	-227.471069	86.734657
5360.094371	-5.042664	-228.581528	88.020454
5360.097704	-5.744011	-230.685577	89.364708
5360.101062	-4.984217	-232.555817	90.942726
5360.103949	-4.750437	-235.068970	93.280540
5360.107279	-4.925772	-236.880783	94.390999
5360.110614	-5.042664	-239.101700	97.079491
5360.114012	-5.393335	-241.907074	99.300407
5360.117320	-5.159554	-243.660431	101.229103
5360.120607	-5.510229	-246.173584	103.800697
5360.123940	-5.451782	-248.803619	106.722969
5360.127278	-6.270020	-251.433670	110.229698
5360.130642	-6.445354	-255.115723	113.093513
5360.133941	-6.737579	-256.576843	116.132668
5360.137278	-6.094681	-258.739319	119.697838
5360.140608	-7.322033	-262.246063	123.613670
5360.143943	-7.088253	-265.168335	128.172424
5360.147279	-7.497372	-268.558136	130.860901
5360.150612	-7.322033	-271.947968	135.711884
5360.153947	-7.380478	-274.753357	139.861481
5360.157273	-7.497372	-278.260101	145.179993
5360.160612	-7.497372	-281.825256	149.914093
5360.163937	-7.731152	-285.039734	155.349518
5360.167272	-7.263588	-288.838715	159.966675
5360.170611	-6.912918	-292.696106	165.402100
5360.173951	-6.971363	-296.611938	171.129761
5360.177272	-6.737579	-299.709534	176.389832
5360.180601	-6.328465	-304.209839	181.883698
5360.183941	-6.679134	-307.190552	187.377563
5360.187274	-5.451782	-311.340149	194.215637
5360.190604	-5.042664	-314.379303	200.527740
5360.193937	-4.165983	-318.470490	207.190521
5360.198590	-3.289303	-326.477509	221.042084
5360.201463	-2.120396	-330.159546	227.471069
5360.204853	-1.243715	-333.432495	235.244293
5360.208141	-0.600817	-337.348358	242.549957
5360.211528	-0.133255	-340.971954	249.855621
5360.214869	0.451199	-345.004669	257.395081
5360.217727	0.684980	-348.511383	265.635895
5360.221019	1.912334	-351.784332	274.461121
5360.224364	2.438341	-355.758636	282.760376
5360.227694	2.438341	-359.791351	290.884277
5360.231020	2.438341	-363.648743	299.534180
5360.234354	2.789013	-367.389252	310.229675
5360.237260	3.139685	-370.369965	319.756287
5360.240601	3.665693	-374.519592	330.276428
5360.243931	3.490358	-378.669189	340.504364
5360.247267	2.730568	-382.994171	351.141418
5360.250602	2.847460	-386.150208	362.187592
5360.253926	3.081240	-389.072479	374.402679
5360.257267	3.081240	-392.812988	387.202240
5360.260642	2.204559	-395.969025	399.475739
5360.263932	2.263006	-399.300415	412.976624
5360.267266	2.029224	-401.755127	428.172424
5360.270598	1.795443	-404.560486	442.725281
5360.273930	1.561661	-407.541199	457.511963
5360.277262	1.386324	-409.820587	472.883118
5360.280599	1.269434	-411.807709	488.546509
5360.283927	1.386324	-413.853333	505.261841
5360.287266	0.860315	-415.606659	520.808289
5360.290599	1.327879	-417.067810	539.627686
5360.293925	1.678553	-417.535370	555.817017
5360.297257	2.263006	-418.236694	573.467529
5360.300599	3.256577	-418.353607	591.702515
5360.303949	4.016365	-417.535370	609.586792
5360.307264	4.776155	-416.892456	628.581543
5360.310591	5.594389	-416.015778	646.758057
5360.313921	7.289307	-413.385742	664.233154
5360.317257	8.399767	-411.457031	682.117493
5360.320593	9.919346	-408.008759	701.404419
5360.323923	11.146699	-404.618927	719.054932
5360.327303	13.075396	-400.644653	752.251892
5360.331442	16.348335	-390.884277	771.714172
5360.334778	18.510815	-384.981293	789.890747
5360.338097	20.088837	-379.136749	807.482788
5360.341456	21.842197	-371.421997	823.263062
5360.344793	23.478668	-364.233215	840.329041
5360.347728	26.050264	-356.109283	855.758606
5360.351037	27.511398	-347.576263	871.246582
5360.354375	29.030977	-337.991241	886.910034
5360.357690	30.258329	-328.464661	903.216248
5360.360587	31.018120	-318.236725	917.593811
5360.363920	31.544128	-306.956757	930.101074
5360.367254	31.661018	-294.741699	943.485107
5360.370584	32.128582	-282.292816	956.576904
5360.373917	32.420807	-269.084167	967.739929
5360.377291	32.303917	-255.641724	978.376892
5360.380589	31.719463	-240.971954	988.604919
5360.383920	31.251900	-225.600815	997.722351
5360.387255	30.375219	-209.294571	1006.080017
5360.390604	29.440094	-192.170074	1013.444153
5360.393916	28.446524	-174.519577	1018.645813
5360.397255	27.277617	-156.576859	1024.256592
5360.400588	25.874928	-137.465225	1027.062012
5360.403917	24.296904	-118.236710	1031.386963
5360.407249	23.361778	-97.897720	1032.438965
5360.410581	21.959089	-77.675629	1032.848145
5360.413919	21.082409	-57.511978	1031.854614
5360.417252	20.439510	-36.179428	1030.276489
5360.420616	19.212158	-14.262419	1025.893188
5360.423916	18.861486	7.479252	1021.801819
5360.427245	18.335476	28.987143	1014.496155
5360.430579	18.569260	50.202805	1007.365906
5360.433927	18.510815	71.360023	998.891296
5360.437247	18.101696	92.225014	990.475159
5360.440582	18.569260	112.797783	979.078308
5360.443912	18.803040	133.370544	967.915222
5360.447246	19.095268	152.657501	955.992371
5360.450573	19.796612	172.119797	942.842163
5360.455265	20.731737	207.888367	916.074219
5360.458159	21.023964	224.428406	899.767944
5360.461497	21.959089	240.851532	882.877197
5360.464876	22.777325	257.216248	867.155396
5360.468086	23.303333	271.301575	850.030945
5360.471433	23.420223	286.088257	834.542908
5360.474334	23.770895	299.296906	817.535339
5360.477686	23.537113	311.219757	800.469299
5360.480997	24.004677	322.908813	782.877197
5360.484334	23.361778	334.071899	765.928162
5360.487248	22.485098	344.241364	748.628296
5360.490573	21.959089	354.410858	730.451782
5360.493905	21.140854	363.002350	713.561096
5360.497244	19.855057	369.840454	694.741638
5360.500572	19.387493	377.730560	677.441833
5360.503909	17.984806	384.627106	660.375793
5360.507265	16.348335	390.822296	642.316162
5360.510578	14.653420	395.088806	624.548767
5360.513908	12.958505	400.115143	606.138550
5360.517241	12.081824	405.082977	587.962036
5360.520584	9.685564	408.180603	569.902405
5360.523904	8.049095	410.985992	552.310364
5360.527240	6.704853	413.382233	535.536560
5360.530576	5.360609	415.018707	518.762695
5360.533908	3.548803	416.421417	502.105774
5360.537234	2.555233	417.181152	485.098206
5360.540571	1.503216	417.181152	467.622986
5360.543903	0.334309	416.304474	451.725891
5360.547236	-1.068380	415.427826	435.361206
5360.550573	-1.477497	414.434235	419.171814
5360.553898	-2.295732	411.687317	403.274689
5360.557234	-3.055521	409.057281	387.962036
5360.560571	-3.639975	406.485687	373.409088
5360.563896	-3.523085	402.920532	359.089996
5360.567279	-4.224428	398.595581	345.296875
5360.570584	-4.691990	395.731720	331.912903
5360.573902	-4.867327	391.874359	318.412018
5360.578528	-4.867327	383.107513	293.572754
5360.581450	-4.107538	378.899475	281.883667
5360.584778	-3.639975	374.457611	270.954407
5360.588105	-3.464638	369.255981	260.258911
5360.591499	-3.756865	364.054352	249.621857
5360.594843	-2.704849	358.911163	239.393921
5360.598172	-2.880186	353.767975	229.691986
5360.600990	-1.886614	348.858551	220.340729
5360.604324	-2.178841	343.949158	211.983063
5360.607654	-1.886614	338.163055	203.450012
5360.610988	-2.061951	333.019867	195.793701
5360.614322	-1.652834	327.818207	187.786682
5360.617654	-1.769724	322.499695	180.831665
5360.620563	-2.821739	317.298065	174.344238
5360.623908	-1.886614	311.979553	167.739899
5360.627227	-1.711279	306.719452	161.544708
5360.630563	-2.237288	301.459381	154.706604
5360.633887	-2.880186	296.549957	148.394501
5360.637224	-3.464638	291.289886	142.608429
5360.640558	-3.406193	286.380463	136.647003
5360.643892	-3.815311	281.178833	130.276459
5360.647232	-3.990646	276.035645	125.542381
5360.650558	-5.042664	271.067780	120.165398
5360.653889	-5.334888	266.041473	114.145531
5360.657223	-5.510229	261.132080	110.054359
5360.660561	-5.977791	256.456451	104.794273
5360.663888	-6.445354	251.780823	100.177101
5360.667230	-6.971363	247.105194	95.852135
5360.670555	-6.971363	242.078888	91.702522
5360.673888	-7.146698	237.344833	86.909996
5360.677217	-7.614262	233.487427	82.935707
5360.680552	-7.205143	228.519577	79.721214
5360.683889	-7.322033	224.779083	75.104027
5360.687225	-7.380478	220.220352	71.947990
5360.690557	-7.205143	215.661591	68.791939
5360.693888	-7.380478	211.687317	64.583870
5360.697218	-7.380478	207.713028	61.310936
5360.700553	-7.205143	203.972519	57.044418
5360.703922	-7.497372	200.115128	54.998833
5360.707221	-6.854469	196.959091	51.725899
5360.710569	-6.912918	193.043243	49.154289
5360.713884	-6.796024	189.478088	47.576271
5360.718509	-6.854469	183.049103	42.199303
5360.721406	-5.977791	179.717697	40.504379
5360.724757	-6.328465	176.444763	38.283455
5360.728113	-5.568674	173.405609	36.880768
5360.731472	-5.451782	170.717117	34.250732
5360.734339	-5.101109	167.911743	33.490944
5360.737651	-5.042664	165.573929	31.211571
5360.741001	-4.984217	162.885452	29.750443
5360.744312	-4.224428	160.021622	27.938629
5360.747684	-4.049091	157.216248	26.652832
5360.750547	-4.049091	154.936874	25.776154
5360.753890	-4.399765	153.066620	25.191704
5360.757217	-4.458210	150.436584	22.970779
5360.760547	-4.224428	148.566330	21.626534
5360.763880	-4.458210	146.403854	21.100525
5360.767211	-4.341318	143.949142	19.697838
5360.770542	-4.282873	142.312683	19.639397
5360.773877	-4.925772	140.150192	17.886032
5360.777212	-4.633545	138.104614	15.606667
5360.780544	-4.633545	135.591461	15.548218
5360.783948	-4.458210	133.487427	15.022209
5360.787211	-4.867327	132.084747	13.853302
5360.790578	-5.159554	130.039154	13.444191
