time (s)	magX	magY	magZ
2216.302740	115.780243	261.426056	-782.174133
2216.306068	113.267097	275.160706	-766.160156
2216.309402	111.279953	288.194031	-750.672119
2216.312735	108.123901	301.928680	-734.015198
2216.316072	106.253647	314.143768	-717.475159
2216.319398	102.746925	325.832855	-700.409119
2216.322733	100.058449	336.119232	-683.343079
2216.326064	97.545296	346.054932	-666.510803
2216.329453	94.623032	354.938629	-649.035645
2216.332739	91.466980	364.640564	-631.326721
2216.336100	89.479836	371.829346	-614.377563
2216.339397	86.265343	378.141418	-597.720642
2216.342738	83.635300	385.037994	-580.303894
2216.346064	81.180595	390.414948	-563.530090
2216.349404	78.550552	394.564575	-545.762756
2216.352736	75.803627	398.947968	-529.222656
2216.356067	73.641144	402.746918	-513.325562
2216.359399	71.186440	405.844543	-498.305084
2216.362731	68.673286	408.065460	-481.414368
2216.366065	66.335472	409.585052	-465.283447
2216.369396	64.348335	411.163055	-449.912323
2216.372733	61.659847	411.981293	-435.184082
2216.376060	59.906490	412.565765	-419.812958
2216.379413	56.867332	412.273499	-405.493866
2216.382725	54.938633	411.572174	-391.291656
2216.386060	53.185272	410.812378	-377.615417
2216.389391	50.379898	409.760376	-364.114532
2216.392730	48.334305	407.714783	-351.139679
2216.396057	46.405609	406.019867	-338.749268
2216.399432	44.301579	404.032715	-325.949738
2216.402730	42.197548	401.753387	-314.319122
2216.406061	39.918175	398.947968	-302.980713
2216.409395	38.106369	396.434845	-290.999420
2216.412721	35.827003	392.928131	-279.602570
2216.416063	33.722969	389.538300	-268.556396
2216.419399	31.794271	386.265350	-257.276428
2216.422755	30.099356	382.933960	-246.931625
2216.426058	28.521332	378.550568	-237.814148
2216.429391	26.709526	375.102295	-228.521317
2216.432722	24.839275	371.186462	-218.293411
2216.436061	23.027470	366.627686	-208.533020
2216.440729	20.046755	357.977783	-190.882523
2216.443592	17.708942	353.477509	-182.992401
2216.446997	16.890707	349.269440	-174.050262
2216.450305	14.611338	345.061371	-165.751022
2216.453578	13.617767	340.327301	-158.328461
2216.456896	12.390414	335.359436	-150.438339
2216.460255	10.520164	330.450043	-143.308014
2216.463590	9.585038	325.949738	-136.177673
2216.466951	8.123904	321.858582	-128.755112
2216.469835	6.545880	317.124481	-121.975456
2216.473175	5.143191	312.390411	-115.195786
2216.476506	4.091175	307.597900	-110.052597
2216.479808	3.272940	303.389832	-103.974281
2216.483137	2.045588	297.779083	-98.363533
2216.486478	1.285798	294.506134	-92.518997
2216.489821	-0.292227	290.356506	-87.843361
2216.493146	-1.928697	286.031555	-82.057281
2216.496481	-2.220923	281.940399	-77.673874
2216.499379	-3.389831	277.206299	-72.647568
2216.502718	-4.792519	273.582703	-69.257744
2216.506047	-5.260082	269.374634	-64.757454
2216.509391	-5.902981	265.575684	-61.484509
2216.512714	-6.487434	262.185852	-56.341320
2216.516052	-6.896552	257.627136	-53.185272
2216.519377	-7.305669	254.178833	-49.561657
2216.522713	-7.948568	250.204559	-46.230274
2216.526097	-8.766803	247.457626	-42.782001
2216.529385	-9.468147	243.775558	-39.450611
2216.532707	-9.877264	240.736420	-36.762127
2216.536043	-10.695500	237.463470	-33.138515
2216.539414	-10.929281	234.307434	-30.274693
2216.542717	-11.572180	230.917603	-27.878433
2216.546044	-11.922852	228.053757	-24.839275
2216.549378	-12.682642	225.131516	-22.501461
2216.552722	-12.857978	221.858566	-20.280537
2216.556049	-13.267096	218.585632	-17.708942
2216.559376	-13.442431	216.481598	-16.072474
2216.562710	-14.611338	213.267090	-13.734658
2216.566041	-15.078900	210.286377	-10.987726
2216.569375	-15.546463	207.831665	-8.942139
2216.572713	-16.189363	205.084747	-7.305669
2216.576045	-17.007599	202.396255	-5.493863
2216.579376	-16.656927	200.175339	-3.915838
2216.582726	-17.592052	197.369965	-1.344243
2216.586042	-17.884277	195.032150	1.461134
2216.589374	-18.118059	192.109879	3.039158
2216.592711	-18.293396	189.479843	5.260082
2216.596050	-19.228521	187.142029	6.312099
2216.599376	-19.579193	185.447113	8.416131
2216.602711	-19.929865	183.226181	9.994155
2216.606037	-21.040327	181.297485	12.273524
2216.609376	-20.806547	179.193451	13.909994
2216.612747	-20.981882	176.212738	14.319112
2216.616044	-21.391001	174.693161	16.306253
2216.619375	-21.800117	172.647568	16.890707
2216.622705	-21.215664	171.537109	18.760958
2216.626052	-21.274109	169.023972	19.053185
2216.629370	-21.917007	167.504379	20.864992
2216.632704	-21.800117	165.926361	20.981882
2216.636042	-21.917007	164.231445	22.501461
2216.639374	-22.559906	163.004089	23.495031
2216.644059	-23.085915	159.906479	25.365284
2216.647006	-22.969025	158.270020	26.651081
2216.650304	-22.969025	157.510239	27.001753
2216.653560	-23.728813	156.399765	27.410872
2216.656927	-23.611923	154.763290	28.229105
2216.660222	-24.137930	153.068375	29.281122
2216.663576	-23.904150	152.600815	29.631794
2216.666907	-24.254822	151.198120	30.450027
2216.670341	-24.313267	150.204559	31.092926
2216.673663	-24.254822	149.327881	31.502045
2216.676483	-24.021040	147.866745	32.203392
2216.679798	-24.488602	147.048508	32.437172
2216.683130	-24.371712	145.821152	33.313854
2216.686455	-24.371712	145.762711	33.781414
2216.689799	-24.605494	144.535370	33.898308
2216.693125	-24.897720	143.892456	33.489189
2216.696452	-25.014612	142.781998	34.307423
2216.699815	-25.189949	141.963776	35.417885
2216.702698	-24.897720	141.203979	34.950321
2216.706034	-25.365284	140.911743	35.827003
2216.709359	-25.248394	139.976624	35.534775
2216.712692	-26.066628	139.625961	36.762127
2216.716026	-26.241964	138.573929	36.528347
2216.719365	-25.657511	138.047928	36.937462
2216.722730	-26.358854	137.580353	37.229691
2216.726034	-26.651081	137.346573	37.697254
2216.729363	-26.475746	136.879013	37.931034
2216.732695	-26.475746	136.411453	38.515488
2216.736061	-26.125072	135.885437	38.924606
2216.739356	-26.241964	135.534775	38.164814
2216.742723	-26.943308	135.067215	38.515488
2216.746027	-26.767973	134.424316	38.690823
2216.749357	-26.884863	134.248978	39.392166
2216.752692	-27.177090	133.722977	39.976620
2216.756033	-26.767973	134.015198	39.099941
2216.759356	-27.293980	133.664520	39.918175
2216.762691	-27.761543	133.313843	40.385738
2216.766023	-27.352425	133.430740	40.210403
2216.769352	-27.644651	133.313843	40.970196
2216.772689	-27.644651	132.729401	40.444183
2216.776020	-28.404442	133.547623	41.379311
2216.779382	-28.229105	133.138519	40.385738
2216.782687	-28.638224	132.554062	40.970196
2216.786026	-28.404442	132.904739	40.677963
2216.789373	-28.287550	133.430740	39.918175
2216.792684	-28.638224	133.547623	40.093510
2216.796016	-28.579777	133.898300	39.859730
2216.799358	-29.047340	134.716537	39.859730
2216.802688	-28.755114	134.658096	39.918175
2216.806020	-29.105785	134.658096	40.035065
2216.809354	-28.988895	135.067215	39.450611
2216.812686	-29.164230	135.184097	39.801285
2216.816026	-28.872004	136.177673	38.983051
2216.819354	-29.222675	136.294571	39.333721
2216.822690	-29.105785	137.054367	38.573933
2216.826023	-28.696669	137.638809	38.223259
2216.829367	-29.514902	137.872589	37.755699
2216.832683	-29.514902	138.047928	37.989479
2216.836018	-29.339567	138.807709	37.463470
2216.839353	-29.631794	139.450607	36.762127
2216.842683	-29.748684	140.093521	36.995907
2216.847398	-29.865574	141.028641	36.879017
2216.850264	-29.865574	141.788422	36.469902
2216.853980	-30.216248	142.665115	35.476330
2216.856865	-30.274693	144.476913	35.184105
2216.860230	-30.859146	144.360016	34.599651
2216.863564	-30.800701	144.769150	34.365868
2216.866985	-30.508474	145.996506	33.664524
2216.870289	-30.683809	146.639389	33.430744
2216.873596	-31.385153	147.925186	33.313854
2216.876869	-31.092926	148.451202	31.969610
2216.880192	-31.502045	149.210983	31.443600
2216.883096	-31.735825	150.730560	31.677380
2216.886442	-31.618935	151.957916	30.800701
2216.889767	-31.735825	152.834595	29.924021
2216.893103	-31.735825	153.945068	30.040911
2216.896468	-32.320282	155.406204	28.345997
2216.899785	-32.437172	156.282883	28.229105
2216.903126	-32.378727	157.627121	27.586206
2216.906439	-32.203392	159.263580	27.352425
2216.909377	-32.437172	160.666275	26.358854
2216.912675	-32.203392	161.952072	25.248394
2216.916015	-32.670956	163.647003	24.430157
2216.919345	-32.904736	164.815903	22.852133
2216.922673	-33.196960	166.744583	22.384571
2216.926007	-33.606079	169.082397	21.683226
2216.929343	-34.015198	170.075974	20.864992
2216.932676	-34.190533	171.770889	19.170076
2216.936003	-33.956753	174.050262	17.650497
2216.939339	-34.132088	176.504974	16.072474
2216.942673	-34.365868	177.907654	14.669784
2216.946008	-34.190533	179.719467	14.026885
2216.949340	-35.067211	182.758621	12.624197
2216.952692	-34.073643	184.278198	10.753945
2216.956004	-34.482758	186.616013	9.468147
2216.959338	-35.242550	189.304489	7.481005
2216.962669	-35.067211	191.583878	6.370543
2216.966059	-35.768555	193.687897	4.850964
2216.969338	-35.768555	196.376389	2.513150
2216.972672	-36.177673	198.538864	0.584454
2216.975997	-36.528347	201.461121	-1.402689
2216.979335	-36.586792	203.740509	-3.623612
2216.982666	-36.820572	206.312103	-5.552309
2216.986001	-37.580360	209.117477	-7.597896
2216.989334	-37.405025	211.689072	-9.292811
2216.992664	-37.638809	214.377548	-11.279953
2216.996038	-38.106369	216.949158	-14.611338
2216.999329	-38.281708	220.163651	-16.364700
2217.002663	-39.275276	222.735245	-17.884277
2217.005996	-39.333721	225.832840	-20.981882
2217.009335	-39.509056	228.404449	-23.261251
2217.012667	-40.151958	231.969620	-26.241964
2217.016000	-40.151958	235.242554	-29.222675
2217.019336	-41.145531	237.521912	-31.735825
2217.022662	-41.320866	240.911743	-35.067211
2217.026020	-42.080654	243.600220	-37.755699
2217.029331	-42.723553	247.749847	-40.327293
2217.032683	-43.366451	250.847458	-44.476913
2217.036003	-43.834015	254.354172	-48.100525
2217.039359	-44.652252	258.211578	-52.308590
2217.042664	-44.710697	262.361206	-55.347752
2217.045998	-45.762711	265.341888	-59.672707
2217.049329	-45.879601	269.374634	-64.991234
2217.053968	-47.399181	277.966095	-73.056694
2217.057353	-47.749855	281.998840	-77.849213
2217.060202	-48.977203	286.090027	-82.641731
2217.063585	-49.210987	289.596710	-87.668030
2217.066928	-50.087666	294.389252	-92.869667
2217.070224	-50.204556	298.363525	-98.538864
2217.073503	-51.315022	303.682068	-104.500290
2217.076841	-51.899475	306.955017	-110.169495
2217.080215	-52.659260	311.864410	-116.189362
2217.083527	-53.419052	315.955597	-122.969017
2217.086434	-54.471069	320.397430	-130.917603
2217.089789	-55.289303	324.897705	-136.703674
2217.093114	-56.049095	329.690247	-143.366455
2217.096490	-56.867332	333.898315	-150.204559
2217.099792	-57.393337	338.047943	-158.094681
2217.103088	-58.503799	342.957336	-166.803040
2217.106414	-59.672707	347.223846	-174.459381
2217.109743	-60.666275	352.074829	-182.875519
2217.112673	-62.185852	356.399780	-191.466980
2217.115990	-63.588543	361.192261	-199.123322
2217.119321	-64.523674	364.991241	-207.948563
2217.122657	-65.400352	369.549957	-217.884277
2217.125987	-66.686150	373.465790	-228.287552
2217.129323	-68.848625	377.264771	-237.288147
2217.132658	-69.959084	381.180603	-247.165390
2217.135982	-71.069550	385.330231	-257.042664
2217.139324	-72.998253	388.953827	-267.212158
2217.142673	-74.284050	392.168335	-278.784332
2217.145988	-75.862068	395.558136	-289.479828
2217.149337	-77.966103	398.421967	-300.584473
2217.152655	-79.310349	401.578033	-312.974854
2217.155989	-81.355927	404.383423	-324.897705
2217.159316	-83.226189	406.779663	-338.223267
2217.162646	-85.037987	408.416138	-350.263000
2217.165981	-87.434250	410.870850	-363.588562
2217.169314	-88.836937	412.273499	-377.089417
2217.172647	-91.408531	413.559326	-391.116302
2217.175983	-92.986557	414.085327	-405.376953
2217.179318	-95.032143	414.611328	-420.455872
2217.182648	-96.551720	414.962006	-434.716553
2217.186003	-98.772644	415.488007	-449.503235
2217.189311	-101.052025	413.559326	-465.166565
2217.192647	-102.922272	412.741089	-481.063690
2217.195985	-105.026306	411.338379	-498.188202
2217.199312	-107.071892	408.474579	-515.195801
2217.202651	-109.585037	405.201630	-531.092957
2217.205985	-111.747513	401.402710	-548.275879
2217.209312	-114.085327	396.902405	-564.815918
2217.212645	-115.838692	391.934540	-582.057312
2217.215977	-118.293396	386.616028	-599.590881
2217.219318	-119.929863	380.303894	-616.890747
2217.222647	-122.501457	373.115143	-633.956787
2217.226032	-125.482178	365.809479	-651.841003
2217.229334	-127.469315	356.750427	-669.140869
2217.232643	-128.988892	347.866760	-686.031555
2217.235974	-131.735825	337.463470	-703.506714
2217.239301	-134.307419	326.943298	-720.514282
2217.242651	-136.762131	315.371124	-735.943909
2217.245973	-138.632385	303.331360	-753.477478
2217.249314	-140.327301	290.765656	-769.900635
2217.252646	-142.548218	276.797211	-785.271790
2217.255975	-144.710693	262.536530	-800.409119
2217.260657	-148.860306	233.664520	-829.865540
2217.264034	-150.730560	217.708939	-843.307983
2217.266960	-152.483932	201.344254	-857.334900
2217.270240	-154.587967	184.628876	-869.666870
2217.273531	-156.282883	167.212158	-882.934021
2217.276821	-157.568665	148.918762	-894.564636
2217.280149	-160.198715	130.333130	-904.617187
2217.283493	-161.426071	111.279953	-915.195740
2217.286852	-163.237869	92.226768	-924.021057
2217.290205	-164.231445	73.290474	-931.735779
2217.293085	-165.575684	53.068382	-940.268799
2217.296428	-166.744583	33.430744	-946.171875
2217.299775	-168.088837	13.793103	-951.841064
2217.303061	-168.614838	-7.013443	-956.575134
2217.306400	-168.965515	-27.761543	-960.783203
2217.309737	-169.666870	-47.457626	-962.828735
2217.313058	-169.666870	-67.796616	-965.575684
2217.316404	-170.309753	-87.901810	-966.393921
2217.319299	-169.900650	-107.539452	-965.634155
2217.322630	-169.959091	-127.878441	-964.231506
2217.325963	-169.900650	-147.106964	-961.133850
2217.329303	-170.251312	-165.867920	-957.510193
2217.332633	-169.257751	-185.271774	-952.425476
2217.335968	-168.088837	-203.097610	-946.697815
2217.339304	-167.329056	-220.981888	-939.801331
2217.342636	-166.452377	-238.106369	-931.092957
2217.345969	-165.400345	-254.471069	-922.326111
2217.349334	-163.413208	-269.959106	-911.981323
2217.352652	-161.835175	-284.628876	-901.285828
2217.355960	-160.432495	-300.467560	-888.953796
2217.359313	-158.620697	-314.377533	-876.446533
2217.362635	-156.575104	-327.644653	-863.705444
2217.365965	-155.756866	-339.450623	-848.568054
2217.369294	-152.951492	-351.607239	-833.722961
2217.372636	-151.256577	-362.711853	-818.702515
2217.375966	-148.743423	-372.764465	-802.279358
2217.379295	-146.522491	-382.583282	-785.856262
2217.382628	-144.476913	-391.642303	-768.614868
2217.385959	-142.548218	-398.889526	-751.315002
2217.389296	-140.151947	-406.195221	-734.307434
2217.392632	-138.340149	-412.799561	-716.540039
2217.395975	-136.119217	-419.111633	-698.947998
2217.399296	-134.307419	-424.430176	-681.063721
2217.402632	-132.086502	-428.170685	-663.705444
2217.405965	-130.625366	-432.963196	-645.821167
2217.409290	-128.404434	-436.060760	-627.352417
2217.412619	-126.300407	-438.749268	-609.059021
2217.415964	-123.962593	-440.736389	-590.940979
2217.419356	-121.975456	-443.074219	-572.530701
2217.422624	-119.228516	-444.009338	-555.523132
2217.425964	-117.533600	-444.886017	-537.814148
2217.429290	-116.364693	-445.762726	-520.222107
2217.432621	-113.559319	-445.821136	-502.746918
2217.435955	-111.864410	-445.119812	-486.089996
2217.439288	-110.111046	-443.834015	-468.673279
2217.442623	-107.364120	-442.898895	-452.483948
2217.445968	-105.669197	-441.028656	-436.060760
2217.449285	-104.441849	-439.509064	-419.988312
2217.452621	-102.630043	-437.229675	-404.091156
2217.455950	-100.175331	-435.476349	-389.187592
2217.459287	-98.889534	-432.729401	-373.933350
2217.462620	-96.843948	-429.398010	-358.854462
2217.467301	-92.577438	-423.027466	-330.040894
2217.470207	-90.940971	-420.046753	-316.832245
2217.473537	-89.304504	-415.663330	-302.279388
2217.476855	-87.083580	-411.922852	-290.356506
2217.480136	-85.271767	-408.182343	-277.557007
2217.483466	-83.167740	-404.500305	-265.283478
2217.486829	-81.414375	-400.467590	-253.828171
2217.490202	-80.070129	-395.967255	-242.372864
2217.493491	-78.609001	-391.466980	-232.378723
2217.496402	-77.147865	-387.200470	-221.449448
2217.499729	-75.628288	-382.700195	-210.403275
2217.503069	-74.050262	-378.375214	-200.759796
2217.506367	-72.238457	-373.173584	-191.116302
2217.509705	-71.127991	-369.199310	-181.765045
2217.513051	-69.959084	-364.348328	-172.589127
2217.516370	-68.673286	-359.672699	-163.763885
2217.519706	-67.270599	-354.120392	-156.224426
2217.523038	-66.452370	-349.737000	-148.042084
2217.525951	-65.400352	-345.587372	-141.554642
2217.529279	-64.231445	-340.970184	-133.547623
2217.532627	-63.413208	-336.294556	-126.417305
2217.535949	-62.127411	-332.437195	-118.994736
2217.539282	-61.484509	-328.229126	-112.215080
2217.542613	-60.315601	-323.904144	-106.370544
2217.545946	-58.679134	-319.637634	-100.058449
2217.549330	-58.386909	-315.604889	-93.863235
2217.552611	-57.802456	-310.870850	-88.953827
2217.555943	-56.575100	-306.779663	-83.401520
2217.559278	-55.815315	-302.863800	-78.901222
2217.562611	-55.289303	-298.947968	-73.056694
2217.565947	-54.587959	-294.856812	-69.549973
2217.569314	-53.769726	-291.116302	-64.932785
2217.572611	-53.068382	-287.142029	-60.958504
2217.575940	-52.717709	-283.459961	-56.691994
2217.579280	-51.724136	-279.777893	-52.659260
2217.582611	-51.022793	-276.154297	-48.977203
2217.585939	-50.321449	-273.115143	-45.236702
2217.589278	-50.379898	-269.316193	-41.963764
2217.592606	-49.795441	-265.692566	-38.106369
2217.595944	-49.269432	-262.945648	-34.482758
2217.599277	-48.568089	-259.380493	-30.625364
2217.602607	-47.983635	-255.581528	-27.118645
2217.605942	-47.925190	-252.717712	-23.904150
2217.609281	-47.048508	-249.035645	-21.741673
2217.612625	-46.405609	-246.113403	-18.702513
2217.615940	-45.996494	-243.132660	-15.897136
2217.619313	-45.236702	-240.151947	-13.325541
2217.622604	-44.535358	-237.755707	-10.052601
2217.625936	-44.360023	-234.774994	-7.773232
2217.629276	-43.308006	-232.320282	-5.552309
2217.632601	-43.308006	-229.339569	-2.104033
2217.635931	-43.249561	-227.352432	0.058445
2217.639272	-42.898891	-224.371719	3.156049
2217.642600	-42.548218	-221.624786	4.208066
2217.645931	-42.314438	-219.637634	6.136762
2217.649266	-41.320866	-217.241379	7.948568
2217.652605	-41.028641	-214.845108	9.818819
2217.655974	-40.444183	-212.565750	10.987726
2217.659266	-39.625950	-211.046173	12.565751
2217.662607	-39.567505	-208.591461	14.845119
2217.665932	-38.924606	-206.370544	15.955583
2217.670611	-38.281708	-202.337814	18.468731
2217.673578	-38.573933	-200.526001	19.520748
2217.676860	-38.807713	-198.655762	20.806547
2217.680127	-38.340153	-197.486847	22.092344
2217.683450	-37.989479	-195.616608	23.670368
2217.686787	-37.638809	-193.921692	24.079485
2217.690125	-37.171246	-192.402100	25.073057
2217.693479	-37.229691	-191.233200	25.891293
2217.696868	-37.521915	-189.012283	26.884863
2217.699750	-37.054356	-188.194031	28.287550
2217.703065	-36.703682	-186.966675	29.222675
2217.706369	-36.469902	-185.037994	29.924021
2217.709698	-36.645237	-184.453537	30.157801
2217.713022	-36.236118	-182.992401	31.326708
2217.716358	-36.236118	-181.940384	31.735825
2217.719693	-35.768555	-180.654587	32.495617
2217.723016	-35.710110	-179.777908	32.846291
2217.726346	-35.359440	-177.556976	33.839859
2217.729259	-35.943893	-177.089417	34.833431
2217.732591	-35.710110	-175.686722	35.943893
2217.735925	-35.008766	-174.517822	36.060783
